"Time (s)","Acceleration x (m/s^2)","Acceleration y (m/s^2)","Acceleration z (m/s^2)"
3.828869800E-2,-1.799242616E0,9.827599525E0,-2.507926226E-1
4.078541700E-2,-1.736993313E0,9.837176323E0,-2.795230448E-1
4.328203200E-2,-1.679532528E0,9.808445930E0,-2.890998423E-1
4.577828200E-2,-1.646013618E0,9.774927139E0,-3.034650683E-1
4.827453200E-2,-1.617283225E0,9.750985146E0,-3.226186931E-1
5.077078200E-2,-1.574187636E0,9.707889557E0,-3.178302646E-1
5.326703200E-2,-1.574187636E0,9.669582367E0,-3.417722881E-1
5.576328200E-2,-1.550245643E0,9.640851974E0,-3.848679364E-1
5.826072900E-2,-1.555034041E0,9.636063576E0,-4.135983288E-1
6.075817700E-2,-1.559822440E0,9.631275177E0,-4.758476019E-1
6.320817700E-2,-1.545457244E0,9.636063576E0,-5.189431906E-1
6.566093800E-2,-1.535880446E0,9.645640373E0,-5.620388389E-1
6.811369800E-2,-1.526303530E0,9.669582367E0,-5.859808922E-1
7.057354200E-2,-1.507149935E0,9.688735962E0,-6.051344872E-1
7.304166700E-2,-1.483207941E0,9.707889557E0,-6.147112846E-1
7.551895900E-2,-1.459265947E0,9.741408348E0,-5.811924338E-1
7.800583400E-2,-1.440112352E0,9.770138741E0,-5.237316489E-1
8.050203200E-2,-1.430535555E0,9.784503937E0,-4.758476019E-1
8.300682300E-2,-1.416170359E0,9.803657532E0,-4.183867574E-1
8.551916700E-2,-1.440112352E0,9.813234329E0,-3.513490856E-1
8.803776100E-2,-1.449689150E0,9.822811127E0,-2.795230448E-1
9.056114600E-2,-1.468842745E0,9.822811127E0,-2.220622003E-1
9.308770900E-2,-1.487996340E0,9.822811127E0,-1.837549806E-1
9.561572900E-2,-1.535880446E0,9.808445930E0,-1.502361596E-1
9.813947900E-2,-1.612494826E0,9.822811127E0,-1.215057373E-1
1.006271360E-1,-1.693897724E0,9.822811127E0,-1.262941360E-1
1.031147920E-1,-1.784877419E0,9.841964722E0,-1.502361596E-1
1.056024480E-1,-1.851915002E0,9.865906715E0,-1.837549806E-1
1.080901040E-1,-1.933317900E0,9.894637108E0,-1.837549806E-1
1.105777610E-1,-2.000355482E0,9.904213905E0,-1.598129570E-1
1.130654170E-1,-2.067393064E0,9.909002304E0,-1.023521200E-1
1.155530730E-1,-2.062604666E0,9.894637108E0,-1.616086066E-2
1.180407290E-1,-2.038662672E0,9.909002304E0,3.651157767E-2
1.205283860E-1,-2.024297476E0,9.899425507E0,8.918401599E-2
1.230160420E-1,-2.009932280E0,9.894637108E0,1.083376259E-1
1.255036980E-1,-1.985990286E0,9.889848709E0,6.524199992E-2
1.279913540E-1,-1.976413488E0,9.889848709E0,4.129998013E-2
1.304790110E-1,-2.005143881E0,9.880271912E0,6.045359373E-2
1.329666670E-1,-2.019509077E0,9.875483513E0,6.524199992E-2
1.354543230E-1,-2.019509077E0,9.913790703E0,-1.795651275E-3
1.379419790E-1,-2.019509077E0,9.937732697E0,-8.798690885E-2
1.404296360E-1,-2.033874273E0,9.947309494E0,-1.310825497E-1
1.429172920E-1,-2.081758261E0,9.932944298E0,-9.277531505E-2
1.454049480E-1,-2.086546898E0,9.865906715E0,-6.883329898E-2
1.478926040E-1,-2.076969862E0,9.813234329E0,-1.023521200E-1
1.503802610E-1,-1.995567083E0,9.755773544E0,-1.981201917E-1
1.528679170E-1,-1.909375906E0,9.717466354E0,-2.651578486E-1
1.553555730E-1,-1.823184609E0,9.707889557E0,-3.417722881E-1
1.578432290E-1,-1.746570110E0,9.717466354E0,-3.705027103E-1
1.603308860E-1,-1.660378933E0,9.750985146E0,-3.465606868E-1
1.628185420E-1,-1.617283225E0,9.774927139E0,-3.417722881E-1
1.653061980E-1,-1.569399238E0,9.813234329E0,-2.938882709E-1
1.677938540E-1,-1.545457244E0,9.846753120E0,-2.938882709E-1
1.702815110E-1,-1.511938334E0,9.865906715E0,-2.795230448E-1
1.727691670E-1,-1.492784739E0,9.865906715E0,-3.417722881E-1
1.752568230E-1,-1.459265947E0,9.870695114E0,-2.938882709E-1
1.777444790E-1,-1.444900751E0,9.880271912E0,-3.944447339E-1
1.802321360E-1,-1.397016644E0,9.861118317E0,-3.226186931E-1
1.827197920E-1,-1.363497853E0,9.851541519E0,-2.890998423E-1
1.852074480E-1,-1.277306557E0,9.837176323E0,-2.124854028E-1
1.876951040E-1,-1.258152962E0,9.841964722E0,-3.848679364E-1
1.901827610E-1,-1.234210968E0,9.813234329E0,-4.279635549E-1
1.926704170E-1,-1.310825467E0,9.794080734E0,-5.189431906E-1
1.951580730E-1,-1.420958757E0,9.750985146E0,-3.944447339E-1
1.976457290E-1,-1.569399238E0,9.722254753E0,-3.848679364E-1
2.001333860E-1,-1.727416515E0,9.703101158E0,-2.460042238E-1
2.026210420E-1,-1.856703401E0,9.707889557E0,-2.986766696E-1
2.051086980E-1,-1.962048292E0,9.703101158E0,-1.933317930E-1
2.075963540E-1,-2.048239470E0,9.717466354E0,-2.747346461E-1
2.100840110E-1,-2.081758261E0,9.717466354E0,-1.598129570E-1
2.125716670E-1,-2.086546898E0,9.722254753E0,-2.316390127E-1
2.150593230E-1,-2.057816267E0,9.712677956E0,-1.023521200E-1
2.175469790E-1,-2.048239470E0,9.707889557E0,-1.646013707E-1
2.200346360E-1,-1.995567083E0,9.655217171E0,-2.573766746E-2
2.225222920E-1,-1.957259893E0,9.645640373E0,-8.319851011E-2
2.250099480E-1,-1.904587507E0,9.602544785E0,-1.616086066E-2
2.274976040E-1,-1.856703401E0,9.602544785E0,-1.119289324E-1
2.299852610E-1,-1.784877419E0,9.597756386E0,-8.798690885E-2
2.324729170E-1,-1.717839718E0,9.621698380E0,-2.172738016E-1
2.349605730E-1,-1.626860023E0,9.631275177E0,-1.933317930E-1
2.374482290E-1,-1.540668845E0,9.640851974E0,-2.795230448E-1
2.399358860E-1,-1.464054346E0,9.631275177E0,-2.316390127E-1
2.424235420E-1,-1.377863050E0,9.626486778E0,-3.034650683E-1
2.449111980E-1,-1.301248670E0,9.616909981E0,-3.130418658E-1
2.473988540E-1,-1.191115379E0,9.645640373E0,-3.752911091E-1
2.498865110E-1,-1.114500880E0,9.626486778E0,-3.705027103E-1
2.523741670E-1,-1.028309584E0,9.626486778E0,-4.279635549E-1
2.548618230E-1,-9.852139950E-1,9.631275177E0,-4.614823759E-1
2.573494790E-1,-9.421183467E-1,9.655217171E0,-5.141547918E-1
2.598371360E-1,-9.325415492E-1,9.674370766E0,-5.907692909E-1
2.623247920E-1,-9.564836025E-1,9.717466354E0,-6.673837304E-1
2.648124480E-1,-1.018732786E0,9.746196747E0,-7.679402232E-1
2.673001040E-1,-1.066616893E0,9.794080734E0,-8.493430614E-1
2.697877610E-1,-1.138442874E0,9.832387924E0,-9.594763517E-1
2.722754170E-1,-1.162384868E0,9.865906715E0,-9.546879530E-1
2.747630730E-1,-1.176750183E0,9.865906715E0,-9.977835417E-1
2.772507290E-1,-1.138442874E0,9.870695114E0,-8.732850552E-1
2.797383860E-1,-1.109712481E0,9.875483513E0,-8.397662640E-1
2.822260420E-1,-1.028309584E0,9.856329918E0,-6.769605279E-1
2.847136980E-1,-9.708487988E-1,9.865906715E0,-6.865373254E-1
2.872013540E-1,-9.229647517E-1,9.894637108E0,-5.811924338E-1
2.896890110E-1,-8.846575022E-1,9.923367500E0,-6.625953317E-1
2.921766670E-1,-8.702923059E-1,9.942521095E0,-5.859808922E-1
2.946643230E-1,-8.750807047E-1,9.966463089E0,-6.673837304E-1
2.971519790E-1,-8.942343593E-1,9.976039886E0,-5.716156363E-1
2.996396360E-1,-9.373299479E-1,1.001434708E1,-6.961141229E-1
3.021272920E-1,-9.564836025E-1,1.003828907E1,-6.099228859E-1
3.046149480E-1,-9.660604000E-1,1.003828907E1,-7.152677774E-1
3.071026040E-1,-9.516952038E-1,1.003828907E1,-6.338648796E-1
3.095902610E-1,-9.277531505E-1,1.005265427E1,-7.535749674E-1
3.120779170E-1,-9.038111567E-1,1.005744267E1,-6.578069329E-1
3.145655730E-1,-9.038111567E-1,1.006701946E1,-7.152677774E-1
3.170532290E-1,-9.085995555E-1,1.004786587E1,-5.764040351E-1
3.195408860E-1,-9.229647517E-1,1.005744267E1,-6.386532784E-1
3.220285420E-1,-9.660604000E-1,1.003350067E1,-5.333084464E-1
3.245161980E-1,-1.009155989E0,1.004307747E1,-6.242880821E-1
3.270038540E-1,-1.052251697E0,1.003828907E1,-4.950011969E-1
3.294915110E-1,-1.052251697E0,1.002871227E1,-5.380968451E-1
3.319791670E-1,-1.028309584E0,1.001434708E1,-4.614823759E-1
3.344668230E-1,-9.995791912E-1,1.003350067E1,-5.764040351E-1
3.369544790E-1,-9.660604000E-1,1.001434708E1,-5.668272376E-1
3.394421360E-1,-9.325415492E-1,1.000955868E1,-6.530185342E-1
3.419297920E-1,-8.942343593E-1,9.985616684E0,-6.051344872E-1
3.444174480E-1,-8.655039072E-1,9.976039886E0,-6.961141229E-1
3.469051040E-1,-8.846575022E-1,9.966463089E0,-6.673837304E-1
3.493927610E-1,-9.085995555E-1,9.961674690E0,-7.296329737E-1
3.518804170E-1,-9.708487988E-1,9.937732697E0,-7.296329737E-1
3.543680730E-1,-1.023521185E0,9.932944298E0,-7.727286220E-1
3.568557290E-1,-1.085770488E0,9.899425507E0,-7.487865686E-1
3.593433860E-1,-1.143231273E0,9.894637108E0,-7.439981699E-1
3.618310420E-1,-1.167173386E0,9.851541519E0,-7.009025216E-1
3.643186980E-1,-1.157596469E0,9.798869133E0,-6.530185342E-1
3.668063540E-1,-1.167173386E0,9.774927139E0,-6.386532784E-1
3.692940110E-1,-1.167173386E0,9.741408348E0,-5.811924338E-1
3.717816670E-1,-1.162384868E0,9.712677956E0,-6.386532784E-1
3.742693230E-1,-1.157596469E0,9.707889557E0,-6.434416771E-1
3.767569790E-1,-1.138442874E0,9.703101158E0,-7.392097712E-1
3.792446360E-1,-1.085770488E0,9.703101158E0,-7.296329737E-1
3.817322920E-1,-1.061828494E0,9.693524361E0,-8.254010081E-1
3.842199480E-1,-9.995791912E-1,9.660005569E0,-7.583633661E-1
3.867076040E-1,-9.229647517E-1,9.655217171E0,-8.349778652E-1
3.891952610E-1,-8.463503122E-1,9.645640373E0,-7.296329737E-1
3.916829170E-1,-7.888894677E-1,9.612121582E0,-8.158242106E-1
3.941705730E-1,-7.218518257E-1,9.578602791E0,-7.200561762E-1
3.966582290E-1,-6.739677787E-1,9.559449196E0,-8.206126094E-1
3.991458860E-1,-6.452373862E-1,9.549872398E0,-7.631517649E-1
4.016335420E-1,-6.356605291E-1,9.554660797E0,-9.020155072E-1
4.041211980E-1,-5.877765417E-1,9.545084000E0,-8.301894665E-1
4.066088540E-1,-5.638344884E-1,9.554660797E0,-9.355342984E-1
4.090965110E-1,-5.590460896E-1,9.549872398E0,-8.110358119E-1
4.115841670E-1,-5.686228871E-1,9.569025993E0,-8.828618526E-1
4.140718230E-1,-5.781996846E-1,9.573814392E0,-7.631517649E-1
4.165594790E-1,-6.212953329E-1,9.612121582E0,-8.684966564E-1
4.190471360E-1,-6.643909812E-1,9.631275177E0,-7.870938182E-1
4.215347920E-1,-6.931213737E-1,9.660005569E0,-9.068039060E-1
4.240224480E-1,-7.170634270E-1,9.664793968E0,-8.110358119E-1
4.265101040E-1,-7.457938194E-1,9.693524361E0,-8.924387097E-1
4.289977610E-1,-7.505822182E-1,9.703101158E0,-8.158242106E-1
4.314854170E-1,-7.936778665E-1,9.727043152E0,-8.780734539E-1
4.339730730E-1,-8.463503122E-1,9.722254753E0,-8.110358119E-1
4.364607290E-1,-9.181763530E-1,9.765350342E0,-9.211691022E-1
4.389483860E-1,-1.023521185E0,9.789292336E0,-8.924387097E-1
4.414360420E-1,-1.104924083E0,9.827599525E0,-1.012148738E0
4.439236980E-1,-1.162384868E0,9.841964722E0,-9.738415480E-1
4.464113540E-1,-1.186326981E0,9.856329918E0,-1.007360339E0
4.488990110E-1,-1.191115379E0,9.841964722E0,-9.163807034E-1
4.513866670E-1,-1.143231273E0,9.846753120E0,-9.020155072E-1
4.538743230E-1,-1.095347285E0,9.822811127E0,-8.110358119E-1
4.563619790E-1,-1.042674899E0,9.818022728E0,-7.679402232E-1
4.588496360E-1,-9.947907925E-1,9.813234329E0,-7.487865686E-1
4.613372920E-1,-9.564836025E-1,9.837176323E0,-7.870938182E-1
4.638249480E-1,-9.085995555E-1,9.865906715E0,-8.541314602E-1
4.663126040E-1,-8.702923059E-1,9.870695114E0,-8.828618526E-1
4.688002610E-1,-8.271966577E-1,9.880271912E0,-9.211691022E-1
4.712879170E-1,-7.697358727E-1,9.894637108E0,-9.068039060E-1
4.737755730E-1,-7.266402245E-1,9.913790703E0,-9.786299467E-1
4.762632290E-1,-6.596025825E-1,9.947309494E0,-9.690531492E-1
4.787508860E-1,-6.165069342E-1,9.971251488E0,-1.055244446E0
4.812385420E-1,-5.542576909E-1,9.980828285E0,-9.834183455E-1
4.837261980E-1,-5.398924947E-1,9.985616684E0,-1.055244446E0
4.862138540E-1,-5.303156972E-1,9.947309494E0,-1.002571940E0
4.887015110E-1,-5.781996846E-1,9.937732697E0,-1.131858826E0
4.911891670E-1,-6.117185354E-1,9.942521095E0,-1.117493629E0
4.936768230E-1,-6.643909812E-1,9.961674690E0,-1.289876223E0
4.961644790E-1,-6.931213737E-1,9.999981880E0,-1.275510907E0
4.986521360E-1,-7.170634270E-1,1.005744267E1,-1.433528304E0
5.011397920E-1,-7.266402245E-1,1.007659626E1,-1.376067400E0
5.036274480E-1,-7.218518257E-1,1.010532665E1,-1.495777488E0
5.061151040E-1,-7.314286232E-1,1.007659626E1,-1.313818216E0
5.086027610E-1,-7.505822182E-1,1.004786587E1,-1.318606615E0
5.110904170E-1,-8.176198602E-1,9.980828285E0,-1.131858826E0
5.135780730E-1,-8.559271097E-1,9.913790703E0,-1.208473325E0
5.160657290E-1,-9.038111567E-1,9.846753120E0,-1.103128433E0
5.185533860E-1,-9.373299479E-1,9.837176323E0,-1.208473325E0
5.210410420E-1,-9.373299479E-1,9.841964722E0,-1.112705231E0
5.235286980E-1,-9.229647517E-1,9.894637108E0,-1.237203717E0
5.260163540E-1,-9.181763530E-1,9.952097893E0,-1.155800819E0
5.285040110E-1,-9.133879542E-1,1.002392387E1,-1.265934110E0
5.309916670E-1,-9.133879542E-1,1.003828907E1,-1.165377736E0
5.334793230E-1,-9.181763530E-1,1.009096146E1,-1.232415318E0
5.359669790E-1,-9.469067454E-1,1.010053825E1,-1.136647224E0
5.384546360E-1,-9.708487988E-1,1.010532665E1,-1.165377736E0
5.409422920E-1,-1.013944387E0,1.009574986E1,-1.079186440E0
5.434299480E-1,-1.052251697E0,1.009574986E1,-1.117493629E0
5.459176040E-1,-1.076193690E0,1.007180786E1,-9.882067442E-1
5.484052610E-1,-1.061828494E0,1.004786587E1,-9.882067442E-1
5.508929170E-1,-1.033097982E0,1.001913548E1,-9.068039060E-1
5.533805730E-1,-1.023521185E0,9.995193481E0,-9.307458997E-1
5.558682290E-1,-9.995791912E-1,9.990405083E0,-8.732850552E-1
5.583558860E-1,-9.660604000E-1,9.999981880E0,-8.924387097E-1
5.608435420E-1,-9.516952038E-1,9.999981880E0,-9.115923047E-1
5.633311980E-1,-9.325415492E-1,1.000955868E1,-9.451110959E-1
5.658188540E-1,-9.421183467E-1,1.002392387E1,-1.026513934E0
5.683065110E-1,-9.564836025E-1,1.002871227E1,-1.069609642E0
5.707941670E-1,-9.804255962E-1,1.004786587E1,-1.160589218E0
5.732818230E-1,-9.756371975E-1,1.002871227E1,-1.170166135E0
5.757694790E-1,-9.995791912E-1,9.995193481E0,-1.246780515E0
5.782571360E-1,-9.804255962E-1,9.952097893E0,-1.203684926E0
5.807447920E-1,-9.708487988E-1,9.923367500E0,-1.275510907E0
5.832324480E-1,-9.469067454E-1,9.923367500E0,-1.213261724E0
5.857201040E-1,-9.229647517E-1,9.894637108E0,-1.237203717E0
5.882077610E-1,-8.990227580E-1,9.875483513E0,-1.093551636E0
5.906954170E-1,-8.942343593E-1,9.875483513E0,-1.151012421E0
5.931830730E-1,-8.942343593E-1,9.880271912E0,-1.016937137E0
5.956707290E-1,-9.373299479E-1,9.889848709E0,-1.103128433E0
5.981583860E-1,-9.708487988E-1,9.880271912E0,-1.026513934E0
6.006460420E-1,-1.009155989E0,9.923367500E0,-1.160589218E0
6.031336980E-1,-1.023521185E0,9.932944298E0,-1.079186440E0
6.056213540E-1,-1.037886381E0,9.971251488E0,-1.198896527E0
6.081090110E-1,-1.013944387E0,9.971251488E0,-1.069609642E0
6.105966670E-1,-9.756371975E-1,9.990405083E0,-1.184531331E0
6.130843230E-1,-9.421183467E-1,9.995193481E0,-1.036090732E0
6.155719790E-1,-9.133879542E-1,9.995193481E0,-1.103128433E0
6.180596360E-1,-8.942343593E-1,9.980828285E0,-1.007360339E0
6.205472920E-1,-9.181763530E-1,9.980828285E0,-1.146224022E0
6.230349480E-1,-9.325415492E-1,9.961674690E0,-1.050456047E0
6.255226040E-1,-9.612720013E-1,9.985616684E0,-1.136647224E0
6.280102610E-1,-9.804255962E-1,9.976039886E0,-9.977835417E-1
6.304979170E-1,-9.947907925E-1,9.999981880E0,-1.040879130E0
6.329855730E-1,-9.804255962E-1,9.999981880E0,-8.972271085E-1
6.354732290E-1,-9.612720013E-1,1.001913548E1,-9.307458997E-1
6.379608860E-1,-9.373299479E-1,1.000955868E1,-8.301894665E-1
6.404485420E-1,-9.373299479E-1,1.003828907E1,-9.068039060E-1
6.429361980E-1,-9.612720013E-1,1.002871227E1,-8.493430614E-1
6.454238540E-1,-9.900023937E-1,1.005265427E1,-9.259575009E-1
6.479115110E-1,-1.033097982E0,1.002871227E1,-9.211691022E-1
6.503991670E-1,-1.066616893E0,1.004786587E1,-1.031302333E0
6.528868230E-1,-1.114500880E0,1.005744267E1,-1.069609642E0
6.553744790E-1,-1.157596469E0,1.006223106E1,-1.131858826E0
6.578621360E-1,-1.210268974E0,1.007180786E1,-1.146224022E0
6.603497920E-1,-1.253364563E0,1.007180786E1,-1.165377736E0
6.628374480E-1,-1.262941360E0,1.004786587E1,-1.131858826E0
6.653251040E-1,-1.286883354E0,1.003828907E1,-1.093551636E0
6.678127610E-1,-1.262941360E0,1.002392387E1,-9.977835417E-1
6.703004170E-1,-1.291671872E0,9.995193481E0,-9.259575009E-1
6.727880730E-1,-1.310825467E0,1.000477028E1,-8.732850552E-1
6.752757290E-1,-1.349132657E0,1.001434708E1,-8.397662640E-1
6.777633860E-1,-1.397016644E0,1.002871227E1,-8.158242106E-1
6.802510420E-1,-1.459265947E0,1.005265427E1,-8.254010081E-1
6.827386980E-1,-1.535880446E0,1.010053825E1,-8.637082577E-1
6.852263540E-1,-1.578976035E0,1.012926865E1,-8.972271085E-1
6.877140110E-1,-1.583764434E0,1.014363384E1,-8.828618526E-1
6.902016670E-1,-1.564610839E0,1.016757584E1,-8.876502514E-1
6.926893230E-1,-1.531091928E0,1.019630623E1,-8.876502514E-1
6.951769790E-1,-1.464054346E0,1.022982502E1,-8.924387097E-1
6.976646360E-1,-1.416170359E0,1.024419022E1,-8.780734539E-1
7.001522920E-1,-1.397016644E0,1.028249741E1,-8.589198589E-1
7.026399480E-1,-1.377863050E0,1.030643940E1,-8.349778652E-1
7.051276040E-1,-1.368286252E0,1.031122780E1,-8.445546627E-1
7.076152610E-1,-1.339555860E0,1.033516979E1,-8.589198589E-1
7.101029170E-1,-1.310825467E0,1.036868858E1,-8.254010081E-1
7.125905730E-1,-1.272518158E0,1.038305378E1,-8.014590144E-1
7.150782290E-1,-1.215057373E0,1.038784218E1,-8.014590144E-1
7.175658860E-1,-1.191115379E0,1.038305378E1,-8.589198589E-1
7.200535420E-1,-1.210268974E0,1.039741898E1,-9.738415480E-1
7.225411980E-1,-1.234210968E0,1.040220737E1,-1.103128433E0
7.250288540E-1,-1.282094955E0,1.040699577E1,-1.174954534E0
7.275165110E-1,-1.320402265E0,1.038305378E1,-1.237203717E0
7.300041670E-1,-1.377863050E0,1.036390018E1,-1.246780515E0
7.324918230E-1,-1.420958757E0,1.033038139E1,-1.246780515E0
7.349794790E-1,-1.459265947E0,1.031122780E1,-1.213261724E0
7.374671360E-1,-1.473631144E0,1.029207420E1,-1.184531331E0
7.399547920E-1,-1.497573137E0,1.027770901E1,-1.194108129E0
7.424424480E-1,-1.535880446E0,1.027770901E1,-1.189319730E0
7.449301040E-1,-1.588552833E0,1.028249741E1,-1.160589218E0
7.474177610E-1,-1.655590534E0,1.029686260E1,-1.131858826E0
7.499054170E-1,-1.751358509E0,1.031601620E1,-1.093551636E0
7.523930730E-1,-1.847126603E0,1.034474659E1,-1.055244446E0
7.548807290E-1,-1.947683096E0,1.038784218E1,-1.055244446E0
7.573683860E-1,-2.005143881E0,1.044530392E1,-1.040879130E0
7.598560420E-1,-2.043451071E0,1.048839951E1,-1.021725535E0
7.623436980E-1,-2.072181463E0,1.053628349E1,-1.002571940E0
7.648313540E-1,-2.048239470E0,1.060810947E1,-9.977835417E-1
7.673190110E-1,-2.000355482E0,1.067514706E1,-9.690531492E-1
7.698066670E-1,-1.928529501E0,1.075176144E1,-9.498994946E-1
7.722943230E-1,-1.847126603E0,1.086668301E1,-9.546879530E-1
7.747819790E-1,-1.765723705E0,1.098639297E1,-9.882067442E-1
7.772696360E-1,-1.679532528E0,1.112046814E1,-1.031302333E0
7.797572920E-1,-1.612494826E0,1.127369690E1,-1.045667648E0
7.822449480E-1,-1.540668845E0,1.143650341E1,-1.064821243E0
7.847326040E-1,-1.464054346E0,1.160409737E1,-1.060032845E0
7.872202610E-1,-1.382651448E0,1.177169132E1,-1.021725535E0
7.897079170E-1,-1.286883354E0,1.192013168E1,-9.690531492E-1
7.921955730E-1,-1.234210968E0,1.207814884E1,-9.498994946E-1
7.946832290E-1,-1.210268974E0,1.223616600E1,-9.546879530E-1
7.971708860E-1,-1.191115379E0,1.235108757E1,-9.834183455E-1
7.996585420E-1,-1.238999367E0,1.245643330E1,-1.026513934E0
8.021461980E-1,-1.301248670E0,1.252347088E1,-1.098340034E0
8.046338540E-1,-1.334767461E0,1.258093166E1,-1.112705231E0
8.071215110E-1,-1.344344258E0,1.259529686E1,-1.141435623E0
8.096091670E-1,-1.344344258E0,1.258093166E1,-1.184531331E0
8.120968230E-1,-1.349132657E0,1.253783607E1,-1.194108129E0
8.145844790E-1,-1.368286252E0,1.248037529E1,-1.227626920E0
8.170721360E-1,-1.406593442E0,1.239418411E1,-1.251568913E0
8.195597920E-1,-1.459265947E0,1.232714558E1,-1.299453020E0
8.220474480E-1,-1.487996340E0,1.225053120E1,-1.285087705E0
8.245351040E-1,-1.521515131E0,1.218349361E1,-1.309029818E0
8.270227610E-1,-1.526303530E0,1.213560963E1,-1.285087705E0
8.295104170E-1,-1.550245643E0,1.209730244E1,-1.222838521E0
8.319980730E-1,-1.569399238E0,1.209251404E1,-1.165377736E0
8.344857290E-1,-1.617283225E0,1.209251404E1,-1.155800819E0
8.369733860E-1,-1.660378933E0,1.210687923E1,-1.131858826E0
8.394610420E-1,-1.698686123E0,1.211645603E1,-1.112705231E0
8.419486980E-1,-1.727416515E0,1.214518642E1,-1.079186440E0
8.444363540E-1,-1.736993313E0,1.218828201E1,-1.074398041E0
8.469240110E-1,-1.765723705E0,1.222658920E1,-1.045667648E0
8.494116670E-1,-1.794454217E0,1.226010799E1,-1.040879130E0
8.518993230E-1,-1.794454217E0,1.228404999E1,-1.050456047E0
8.543869790E-1,-1.770512104E0,1.234629917E1,-1.036090732E0
8.568746360E-1,-1.722628117E0,1.237502956E1,-9.594763517E-1
8.593622920E-1,-1.660378933E0,1.238460732E1,-9.115923047E-1
