"Time (s)","Acceleration x (m/s^2)","Acceleration y (m/s^2)","Acceleration z (m/s^2)"
3.800517400E-2,-2.862268209E0,-8.655637741E0,1.573589087E0
4.050064300E-2,-2.838326216E0,-8.636484146E0,1.564012289E0
4.299611200E-2,-2.819172382E0,-8.598176956E0,1.535281897E0
4.549158100E-2,-2.814383984E0,-8.583811760E0,1.540070295E0
4.798704900E-2,-2.752134800E0,-8.559869766E0,1.559223890E0
5.048257000E-2,-2.713827610E0,-8.545504570E0,1.573589087E0
5.297814300E-2,-2.661155224E0,-8.545504570E0,1.592742682E0
5.547376800E-2,-2.579752445E0,-8.535927773E0,1.607107878E0
5.796944500E-2,-2.474407434E0,-8.555081367E0,1.645415068E0
6.046517400E-2,-2.369062662E0,-8.579023361E0,1.712452769E0
6.296095600E-2,-2.258929253E0,-8.617330551E0,1.745971560E0
6.546481000E-2,-2.144007683E0,-8.665214539E0,1.803432465E0
6.791481000E-2,-1.957259893E0,-8.775347710E0,1.860893250E0
7.041736200E-2,-1.875856996E0,-8.828020096E0,1.832162857E0
7.291991400E-2,-1.832761407E0,-8.899846077E0,1.813009262E0
7.546991400E-2,-1.789665818E0,-8.966883659E0,1.769913554E0
7.801991400E-2,-1.775300503E0,-9.019556046E0,1.736394763E0
8.056991400E-2,-1.741781712E0,-9.091382027E0,1.693299174E0
8.311991400E-2,-1.717839718E0,-9.148842812E0,1.640626669E0
8.566991400E-2,-1.713051319E0,-9.182361603E0,1.568800688E0
8.821991400E-2,-1.722628117E0,-9.239823341E0,1.487397790E0
9.076991400E-2,-1.741781712E0,-9.278130531E0,1.401206493E0
9.331991400E-2,-1.736993313E0,-9.321226120E0,1.343745708E0
9.586991400E-2,-1.765723705E0,-9.349956512E0,1.305438519E0
9.841991400E-2,-1.804031014E0,-9.373898506E0,1.267131209E0
1.009699140E-1,-1.823184609E0,-9.402628899E0,1.252766013E0
1.035199140E-1,-1.880645394E0,-9.431359291E0,1.271919608E0
1.060699140E-1,-1.933317900E0,-9.436147690E0,1.295861721E0
1.086199140E-1,-1.985990286E0,-9.455301285E0,1.286284804E0
1.111699140E-1,-2.033874273E0,-9.460089684E0,1.276708007E0
1.137199140E-1,-2.096123695E0,-9.474454880E0,1.257554412E0
1.162699140E-1,-2.167949677E0,-9.488820076E0,1.247977614E0
1.188199140E-1,-2.263717651E0,-9.488820076E0,1.262342811E0
1.213699140E-1,-2.345120668E0,-9.512762070E0,1.281496406E0
1.239199140E-1,-2.397793055E0,-9.522338867E0,1.319803715E0
1.264699140E-1,-2.464830637E0,-9.517550468E0,1.353322506E0
1.290199140E-1,-2.522291422E0,-9.507973671E0,1.358110905E0
1.315699140E-1,-2.551021814E0,-9.507973671E0,1.358110905E0
1.341199140E-1,-2.570175409E0,-9.517550468E0,1.377264500E0
1.366699140E-1,-2.560598612E0,-9.503185272E0,1.415571809E0
1.392199140E-1,-2.555810213E0,-9.484031677E0,1.449090600E0
1.417699140E-1,-2.536656618E0,-9.464878082E0,1.516128182E0
1.443199140E-1,-2.541445017E0,-9.455301285E0,1.564012289E0
1.468699140E-1,-2.522291422E0,-9.436147690E0,1.592742682E0
1.494199140E-1,-2.517503023E0,-9.416994095E0,1.611896276E0
1.519699140E-1,-2.498349428E0,-9.393052101E0,1.631049871E0
1.545199140E-1,-2.488772631E0,-9.335591316E0,1.674145579E0
1.570699140E-1,-2.488772631E0,-9.316437721E0,1.702875972E0
1.596199140E-1,-2.464830637E0,-9.282918930E0,1.722029567E0
1.621699140E-1,-2.436100245E0,-9.244611740E0,1.736394763E0
1.647199140E-1,-2.412158251E0,-9.211092949E0,1.726817966E0
1.672699140E-1,-2.393004656E0,-9.201516151E0,1.726817966E0
1.698199140E-1,-2.359485865E0,-9.177573204E0,1.717241168E0
1.723699140E-1,-2.330755472E0,-9.158419609E0,1.678933978E0
1.749199140E-1,-2.311601639E0,-9.129689217E0,1.626261473E0
1.774699140E-1,-2.287659645E0,-9.115324020E0,1.587954283E0
1.799672580E-1,-2.278082848E0,-9.077016830E0,1.564012289E0
1.824550700E-1,-2.249352455E0,-9.033921242E0,1.506551385E0
1.849428830E-1,-2.215833664E0,-9.019556046E0,1.482609391E0
1.874306950E-1,-2.196680069E0,-9.005190849E0,1.482609391E0
1.899185080E-1,-2.163161278E0,-8.981248856E0,1.482609391E0
1.924063200E-1,-2.129642487E0,-8.976460457E0,1.477820992E0
1.948941330E-1,-2.072181463E0,-8.981248856E0,1.506551385E0
1.973819450E-1,-2.005143881E0,-8.966883659E0,1.520916581E0
1.998697580E-1,-1.923741102E0,-8.971672058E0,1.554435492E0
2.023575700E-1,-1.871068597E0,-8.971672058E0,1.587954283E0
2.048453830E-1,-1.827973008E0,-8.976460457E0,1.573589087E0
2.073331950E-1,-1.775300503E0,-8.986037254E0,1.559223890E0
2.098210080E-1,-1.756146908E0,-8.981248856E0,1.525704980E0
2.123088200E-1,-1.708262920E0,-8.971672058E0,1.492186189E0
2.147966330E-1,-1.674744129E0,-8.962095261E0,1.473032594E0
2.172844450E-1,-1.655590534E0,-8.962095261E0,1.453878999E0
2.197722580E-1,-1.631648421E0,-8.938153267E0,1.434725404E0
2.222600700E-1,-1.631648421E0,-8.957306862E0,1.405994892E0
2.247478830E-1,-1.641225219E0,-8.933364868E0,1.396418095E0
2.272356950E-1,-1.631648421E0,-8.942941666E0,1.405994892E0
2.297235080E-1,-1.655590534E0,-8.947730064E0,1.405994892E0
2.322113200E-1,-1.641225219E0,-8.976460457E0,1.391629696E0
2.346991330E-1,-1.626860023E0,-8.995614052E0,1.396418095E0
2.371869450E-1,-1.636436820E0,-9.029132843E0,1.372476101E0
2.396747580E-1,-1.626860023E0,-9.067440033E0,1.343745708E0
2.421625700E-1,-1.612494826E0,-9.091382027E0,1.305438519E0
2.446503830E-1,-1.598129630E0,-9.124900818E0,1.267131209E0
2.471381950E-1,-1.607706428E0,-9.120112419E0,1.195305228E0
2.496260080E-1,-1.626860023E0,-9.129689217E0,1.243189216E0
2.521138200E-1,-1.650802016E0,-9.110535622E0,1.147421122E0
2.546016330E-1,-1.665167332E0,-9.139266014E0,1.200093627E0
2.570894450E-1,-1.674744129E0,-9.139266014E0,1.056441545E0
2.595772580E-1,-1.669955730E0,-9.134477615E0,1.118690729E0
2.620650700E-1,-1.684320927E0,-9.129689217E0,9.558850527E-1
2.645528830E-1,-1.679532528E0,-9.139266014E0,1.042076349E0
2.670406950E-1,-1.679532528E0,-9.148842812E0,8.984242082E-1
2.695285080E-1,-1.665167332E0,-9.172784805E0,9.989806414E-1
2.720163200E-1,-1.631648421E0,-9.187150002E0,8.649053574E-1
2.745041330E-1,-1.593341231E0,-9.206304550E0,9.750386477E-1
2.769919450E-1,-1.569399238E0,-9.225458145E0,8.553285599E-1
2.794797580E-1,-1.531091928E0,-9.273342133E0,9.941922426E-1
2.819675700E-1,-1.473631144E0,-9.292495728E0,8.696937561E-1
2.844553830E-1,-1.435323954E0,-9.349956512E0,1.027711034E0
2.869431950E-1,-1.382651448E0,-9.393052101E0,9.319429994E-1
2.894310080E-1,-1.363497853E0,-9.464878082E0,1.066018343E0
2.919188200E-1,-1.339555860E0,-9.493608475E0,9.702502489E-1
2.944066330E-1,-1.339555860E0,-9.536704063E0,1.099537134E0
2.968944450E-1,-1.349132657E0,-9.551069260E0,9.941922426E-1
2.993822580E-1,-1.339555860E0,-9.584588051E0,1.080383539E0
3.018700700E-1,-1.325190663E0,-9.603741646E0,9.654618502E-1
3.043578830E-1,-1.306037068E0,-9.646837234E0,1.042076349E0
3.068456950E-1,-1.253364563E0,-9.651625633E0,9.941922426E-1
3.093335080E-1,-1.224634171E0,-9.685144424E0,1.056441545E0
3.118213200E-1,-1.181538582E0,-9.685144424E0,1.027711034E0
3.143091330E-1,-1.152808070E0,-9.713874817E0,1.070806742E0
3.167969450E-1,-1.138442874E0,-9.704298019E0,1.056441545E0
3.192847580E-1,-1.138442874E0,-9.733028412E0,1.128267527E0
3.217725700E-1,-1.143231273E0,-9.718663216E0,1.113902330E0
3.242603830E-1,-1.191115379E0,-9.733028412E0,1.152209520E0
3.267481950E-1,-1.210268974E0,-9.723451614E0,1.137844324E0
3.292360080E-1,-1.258152962E0,-9.733028412E0,1.118690729E0
3.317238200E-1,-1.296460271E0,-9.723451614E0,1.123479128E0
3.342116330E-1,-1.329979062E0,-9.713874817E0,1.094748735E0
3.366994450E-1,-1.377863050E0,-9.718663216E0,1.142632723E0
3.391872580E-1,-1.411381960E0,-9.694721222E0,1.137844324E0
3.416750700E-1,-1.449689150E0,-9.680356026E0,1.224035621E0
3.441628830E-1,-1.492784739E0,-9.665990829E0,1.204882026E0
3.466506950E-1,-1.550245643E0,-9.670779228E0,1.281496406E0
3.491385080E-1,-1.626860023E0,-9.646837234E0,1.247977614E0
3.516263200E-1,-1.698686123E0,-9.618106842E0,1.377264500E0
3.541141330E-1,-1.756146908E0,-9.594164848E0,1.348534107E0
3.566019450E-1,-1.813607812E0,-9.584588051E0,1.482609391E0
3.590897580E-1,-1.875856996E0,-9.546280861E0,1.420360208E0
3.615775700E-1,-1.909375906E0,-9.531915665E0,1.540070295E0
3.640653830E-1,-1.952471495E0,-9.493608475E0,1.444302201E0
3.665531950E-1,-1.962048292E0,-9.488820076E0,1.621473074E0
3.690410080E-1,-1.971625090E0,-9.450512886E0,1.506551385E0
3.715288200E-1,-2.000355482E0,-9.450512886E0,1.650203466E0
3.740166330E-1,-1.995567083E0,-9.440936089E0,1.520916581E0
3.765044450E-1,-1.995567083E0,-9.445724487E0,1.645415068E0
3.789922580E-1,-1.981201887E0,-9.416994095E0,1.482609391E0
3.814800700E-1,-1.990778685E0,-9.407417297E0,1.631049871E0
3.839678830E-1,-1.990778685E0,-9.373898506E0,1.453878999E0
3.864556950E-1,-1.985990286E0,-9.373898506E0,1.597531080E0
3.889435080E-1,-1.957259893E0,-9.340379715E0,1.477820992E0
3.914313200E-1,-1.942894697E0,-9.345168114E0,1.645415068E0
3.939191330E-1,-1.914164305E0,-9.335591316E0,1.516128182E0
3.964069970E-1,-1.880645394E0,-9.354744911E0,1.616684675E0
3.988948620E-1,-1.842338204E0,-9.330802917E0,1.444302201E0
4.013827270E-1,-1.813607812E0,-9.340379715E0,1.540070295E0
4.038705910E-1,-1.780089021E0,-9.321226120E0,1.391629696E0
4.063584560E-1,-1.760935307E0,-9.359533310E0,1.477820992E0
4.088463200E-1,-1.708262920E0,-9.340379715E0,1.348534107E0
4.113341850E-1,-1.684320927E0,-9.349956512E0,1.415571809E0
4.138220490E-1,-1.631648421E0,-9.335591316E0,1.324592113E0
4.163099140E-1,-1.622071624E0,-9.335591316E0,1.396418095E0
4.187977790E-1,-1.583764434E0,-9.340379715E0,1.329380512E0
4.212856430E-1,-1.559822440E0,-9.364321709E0,1.386841297E0
4.237735080E-1,-1.540668845E0,-9.349956512E0,1.396418095E0
4.262613720E-1,-1.535880446E0,-9.364321709E0,1.463455796E0
4.287492370E-1,-1.507149935E0,-9.364321709E0,1.458667397E0
4.312371020E-1,-1.497573137E0,-9.364321709E0,1.487397790E0
4.337249660E-1,-1.502361536E0,-9.364321709E0,1.506551385E0
4.362128310E-1,-1.516726732E0,-9.359533310E0,1.554435492E0
4.387006950E-1,-1.526303530E0,-9.345168114E0,1.645415068E0
4.411885600E-1,-1.559822440E0,-9.326014519E0,1.645415068E0
4.436764240E-1,-1.574187636E0,-9.311649323E0,1.717241168E0
4.461642890E-1,-1.617283225E0,-9.287707329E0,1.669357181E0
4.486521540E-1,-1.665167332E0,-9.297284126E0,1.745971560E0
4.511400180E-1,-1.717839718E0,-9.292495728E0,1.659780383E0
4.536278830E-1,-1.775300503E0,-9.297284126E0,1.688510776E0
4.561157470E-1,-1.847126603E0,-9.268553734E0,1.506551385E0
4.586036120E-1,-1.928529501E0,-9.278130531E0,1.568800688E0
4.610914770E-1,-2.033874273E0,-9.258976936E0,1.386841297E0
4.635793410E-1,-2.139219284E0,-9.258976936E0,1.468244195E0
4.660672060E-1,-2.230198860E0,-9.258976936E0,1.348534107E0
4.685550700E-1,-2.306813240E0,-9.263765335E0,1.477820992E0
4.710429350E-1,-2.378639460E0,-9.244611740E0,1.343745708E0
4.735307990E-1,-2.431311846E0,-9.263765335E0,1.501762986E0
4.760186640E-1,-2.450465441E0,-9.249400139E0,1.396418095E0
4.785064770E-1,-2.455253839E0,-9.244611740E0,1.564012289E0
4.809942890E-1,-2.445677042E0,-9.239823341E0,1.444302201E0
4.834821020E-1,-2.421735048E0,-9.273342133E0,1.611896276E0
4.859699140E-1,-2.364274263E0,-9.268553734E0,1.511339784E0
4.884577270E-1,-2.321178436E0,-9.287707329E0,1.688510776E0
4.909455390E-1,-2.258929253E0,-9.302072525E0,1.573589087E0
4.934333520E-1,-2.211045265E0,-9.306860924E0,1.755548358E0
4.959211640E-1,-2.153584480E0,-9.321226120E0,1.607107878E0
4.984089770E-1,-2.100912094E0,-9.340379715E0,1.693299174E0
5.008967890E-1,-2.057816267E0,-9.335591316E0,1.511339784E0
5.033846020E-1,-1.995567083E0,-9.340379715E0,1.525704980E0
5.058724140E-1,-1.923741102E0,-9.340379715E0,1.324592113E0
5.083602270E-1,-1.885433793E0,-9.359533310E0,1.391629696E0
5.108480390E-1,-1.823184609E0,-9.340379715E0,1.243189216E0
5.133358520E-1,-1.756146908E0,-9.364321709E0,1.281496406E0
5.158236640E-1,-1.679532528E0,-9.369110107E0,1.180940032E0
5.183114770E-1,-1.617283225E0,-9.388263702E0,1.224035621E0
5.207992890E-1,-1.531091928E0,-9.397840500E0,1.176151633E0
5.232871020E-1,-1.478419542E0,-9.426570892E0,1.262342811E0
5.257749140E-1,-1.440112352E0,-9.436147690E0,1.243189216E0
5.282627270E-1,-1.411381960E0,-9.455301285E0,1.276708007E0
5.307505390E-1,-1.392228246E0,-9.455301285E0,1.267131209E0
5.332383520E-1,-1.416170359E0,-9.479243279E0,1.247977614E0
5.357261640E-1,-1.435323954E0,-9.479243279E0,1.238400817E0
5.382139770E-1,-1.502361536E0,-9.464878082E0,1.224035621E0
5.407017890E-1,-1.593341231E0,-9.445724487E0,1.238400817E0
5.431896020E-1,-1.684320927E0,-9.426570892E0,1.190516829E0
5.456774140E-1,-1.775300503E0,-9.397840500E0,1.243189216E0
5.481652270E-1,-1.880645394E0,-9.349956512E0,1.204882026E0
5.506530390E-1,-2.000355482E0,-9.311649323E0,1.291073322E0
5.531408520E-1,-2.115277290E0,-9.287707329E0,1.238400817E0
5.556286640E-1,-2.234987259E0,-9.254188538E0,1.386841297E0
5.581164770E-1,-2.359485865E0,-9.220669746E0,1.343745708E0
5.606042890E-1,-2.455253839E0,-9.206304550E0,1.463455796E0
5.630921020E-1,-2.555810213E0,-9.187150002E0,1.348534107E0
5.655799140E-1,-2.646790028E0,-9.177573204E0,1.473032594E0
5.680677270E-1,-2.737769604E0,-9.139266014E0,1.367687702E0
5.705555390E-1,-2.795230389E0,-9.134477615E0,1.564012289E0
5.730433520E-1,-2.862268209E0,-9.100958824E0,1.487397790E0
5.755311640E-1,-2.900575399E0,-9.100958824E0,1.683722377E0
5.780189770E-1,-2.934094191E0,-9.062651634E0,1.626261473E0
5.805067890E-1,-2.938882589E0,-9.062651634E0,1.827374458E0
5.829946020E-1,-2.919728994E0,-9.048286438E0,1.731606364E0
5.854824140E-1,-2.881421804E0,-9.048286438E0,1.889623642E0
5.879702270E-1,-2.857479811E0,-9.014767647E0,1.741183162E0
5.904580390E-1,-2.809595585E0,-9.019556046E0,1.894412041E0
5.929458520E-1,-2.742558002E0,-8.981248856E0,1.741183162E0
5.954336640E-1,-2.689885616E0,-8.995614052E0,1.880046844E0
5.979214770E-1,-2.598906040E0,-8.986037254E0,1.745971560E0
6.004092890E-1,-2.536656618E0,-8.990825653E0,1.856104851E0
6.028971020E-1,-2.455253839E0,-9.009979248E0,1.722029567E0
6.053849140E-1,-2.364274263E0,-9.024344444E0,1.846528053E0
6.078727270E-1,-2.273294449E0,-9.033921242E0,1.726817966E0
6.103605390E-1,-2.196680069E0,-9.062651634E0,1.822586060E0
6.128483520E-1,-2.096123695E0,-9.072228432E0,1.722029567E0
6.153361640E-1,-2.038662672E0,-9.091382027E0,1.846528053E0
6.178239770E-1,-1.990778685E0,-9.091382027E0,1.731606364E0
6.203117890E-1,-1.942894697E0,-9.115324020E0,1.784278870E0
6.227996020E-1,-1.928529501E0,-9.115324020E0,1.698087573E0
6.252874140E-1,-1.938106298E0,-9.139266014E0,1.750759959E0
6.277752270E-1,-1.947683096E0,-9.139266014E0,1.693299174E0
6.302630390E-1,-2.005143881E0,-9.148842812E0,1.722029567E0
6.327508520E-1,-2.057816267E0,-9.148842812E0,1.654991984E0
6.352386640E-1,-2.129642487E0,-9.163208008E0,1.621473074E0
6.377264770E-1,-2.191891670E0,-9.187150002E0,1.626261473E0
6.402142890E-1,-2.263717651E0,-9.220669746E0,1.573589087E0
6.427021020E-1,-2.349909067E0,-9.239823341E0,1.587954283E0
6.451899140E-1,-2.440888643E0,-9.263765335E0,1.511339784E0
6.476777270E-1,-2.527079821E0,-9.263765335E0,1.554435492E0
6.501655390E-1,-2.627636433E0,-9.268553734E0,1.473032594E0
6.526533520E-1,-2.723404408E0,-9.263765335E0,1.549647093E0
6.551411640E-1,-2.838326216E0,-9.273342133E0,1.501762986E0
6.576289770E-1,-2.958036184E0,-9.254188538E0,1.626261473E0
6.601167890E-1,-3.063380957E0,-9.220669746E0,1.559223890E0
6.626046020E-1,-3.125630379E0,-9.206304550E0,1.669357181E0
6.650924140E-1,-3.187879562E0,-9.196727753E0,1.568800688E0
6.675802270E-1,-3.192667961E0,-9.182361603E0,1.712452769E0
6.700680390E-1,-3.187879562E0,-9.167996407E0,1.607107878E0
6.725558520E-1,-3.178302765E0,-9.167996407E0,1.765125155E0
6.750436640E-1,-3.149572372E0,-9.139266014E0,1.654991984E0
6.775314770E-1,-3.120841980E0,-9.144054413E0,1.817797661E0
6.800192890E-1,-3.077746391E0,-9.120112419E0,1.688510776E0
6.825071020E-1,-3.044227362E0,-9.110535622E0,1.846528053E0
6.849949140E-1,-3.005920172E0,-9.077016830E0,1.693299174E0
6.874827270E-1,-2.967612982E0,-9.077016830E0,1.784278870E0
6.899705390E-1,-2.919728994E0,-9.067440033E0,1.592742682E0
6.924583520E-1,-2.871845007E0,-9.081805229E0,1.707664371E0
6.949461640E-1,-2.809595585E0,-9.091382027E0,1.549647093E0
6.974339770E-1,-2.737769604E0,-9.110535622E0,1.688510776E0
6.999217890E-1,-2.665943623E0,-9.105747223E0,1.564012289E0
7.024096020E-1,-2.598906040E0,-9.124900818E0,1.688510776E0
7.048974140E-1,-2.517503023E0,-9.124900818E0,1.554435492E0
7.073852270E-1,-2.440888643E0,-9.158419609E0,1.678933978E0
7.098730390E-1,-2.373851061E0,-9.167996407E0,1.544858694E0
7.123608520E-1,-2.311601639E0,-9.196727753E0,1.678933978E0
7.148486640E-1,-2.249352455E0,-9.196727753E0,1.602319479E0
7.173364770E-1,-2.220622063E0,-9.211092949E0,1.712452769E0
7.198242890E-1,-2.172738075E0,-9.196727753E0,1.654991984E0
7.223121020E-1,-2.153584480E0,-9.220669746E0,1.750759959E0
7.247999140E-1,-2.129642487E0,-9.211092949E0,1.678933978E0
7.272877270E-1,-2.096123695E0,-9.220669746E0,1.717241168E0
7.297755390E-1,-2.053027868E0,-9.230246544E0,1.631049871E0
7.322633520E-1,-2.048239470E0,-9.249400139E0,1.640626669E0
7.347511640E-1,-2.000355482E0,-9.244611740E0,1.592742682E0
7.372389770E-1,-2.000355482E0,-9.254188538E0,1.530493379E0
7.397267890E-1,-2.005143881E0,-9.263765335E0,1.487397790E0
7.422146020E-1,-2.019509077E0,-9.263765335E0,1.449090600E0
7.447024140E-1,-2.029085875E0,-9.263765335E0,1.453878999E0
7.471902270E-1,-2.038662672E0,-9.263765335E0,1.391629696E0
7.496780390E-1,-2.057816267E0,-9.254188538E0,1.367687702E0
7.521659040E-1,-2.062604666E0,-9.254188538E0,1.310226917E0
7.546537680E-1,-2.096123695E0,-9.258976936E0,1.247977614E0
7.571416330E-1,-2.124854088E0,-9.249400139E0,1.200093627E0
7.596294970E-1,-2.139219284E0,-9.239823341E0,1.152209520E0
7.621173620E-1,-2.187103271E0,-9.225458145E0,1.118690729E0
7.646052270E-1,-2.244564056E0,-9.211092949E0,1.056441545E0
7.670930910E-1,-2.302024841E0,-9.191938400E0,9.846154451E-1
7.695809560E-1,-2.369062662E0,-9.163208008E0,9.415197968E-1
7.720688200E-1,-2.402581453E0,-9.158419609E0,9.271546006E-1
7.745566850E-1,-2.445677042E0,-9.134477615E0,9.175778031E-1
7.770445490E-1,-2.483984232E0,-9.124900818E0,9.271546006E-1
7.795324140E-1,-2.493561029E0,-9.110535622E0,9.894038439E-1
7.820202790E-1,-2.498349428E0,-9.120112419E0,1.051653147E0
7.845081430E-1,-2.507926226E0,-9.115324020E0,1.123479128E0
7.869960080E-1,-2.460042238E0,-9.115324020E0,1.195305228E0
7.894838720E-1,-2.436100245E0,-9.124900818E0,1.238400817E0
7.919717370E-1,-2.407369852E0,-9.139266014E0,1.286284804E0
7.944596020E-1,-2.378639460E0,-9.144054413E0,1.286284804E0
7.969474660E-1,-2.340332270E0,-9.158419609E0,1.276708007E0
7.994353310E-1,-2.321178436E0,-9.163208008E0,1.262342811E0
8.019231950E-1,-2.311601639E0,-9.163208008E0,1.238400817E0
8.044110600E-1,-2.292448044E0,-9.153631210E0,1.185728431E0
8.068989240E-1,-2.297236443E0,-9.144054413E0,1.171363235E0
8.093867890E-1,-2.282871246E0,-9.124900818E0,1.176151633E0
8.118746540E-1,-2.234987259E0,-9.105747223E0,1.180940032E0
8.143625180E-1,-2.182314873E0,-9.105747223E0,1.195305228E0
8.168503830E-1,-2.124854088E0,-9.110535622E0,1.228824019E0
8.193382470E-1,-2.057816267E0,-9.124900818E0,1.257554412E0
8.218261120E-1,-1.990778685E0,-9.139266014E0,1.295861721E0
8.243139770E-1,-1.918952703E0,-9.158419609E0,1.338957310E0
8.268018410E-1,-1.875856996E0,-9.177573204E0,1.348534107E0
8.292896540E-1,-1.861491799E0,-9.206304550E0,1.367687702E0
8.317774660E-1,-1.823184609E0,-9.206304550E0,1.348534107E0
8.342652790E-1,-1.813607812E0,-9.230246544E0,1.338957310E0
8.367530910E-1,-1.827973008E0,-9.244611740E0,1.310226917E0
8.392409040E-1,-1.832761407E0,-9.254188538E0,1.300650120E0
8.417287160E-1,-1.823184609E0,-9.287707329E0,1.267131209E0
8.442165290E-1,-1.847126603E0,-9.311649323E0,1.257554412E0
8.467043410E-1,-1.856703401E0,-9.335591316E0,1.204882026E0
8.491921540E-1,-1.856703401E0,-9.369110107E0,1.195305228E0
8.516799660E-1,-1.866280198E0,-9.378686905E0,1.171363235E0
8.541677790E-1,-1.856703401E0,-9.402628899E0,1.185728431E0
8.566555910E-1,-1.866280198E0,-9.445724487E0,1.185728431E0
8.591434040E-1,-1.875856996E0,-9.464878082E0,1.200093627E0
8.616312160E-1,-1.890222192E0,-9.493608475E0,1.209670424E0
8.641190290E-1,-1.923741102E0,-9.527127266E0,1.219247222E0
8.666068410E-1,-1.971625090E0,-9.551069260E0,1.219247222E0
8.690946540E-1,-2.014720678E0,-9.570222855E0,1.228824019E0
8.715824660E-1,-2.076969862E0,-9.584588051E0,1.267131209E0
8.740702790E-1,-2.148796082E0,-9.579799652E0,1.281496406E0
8.765580910E-1,-2.225410461E0,-9.594164848E0,1.271919608E0
