"Time (s)","Acceleration x (m/s^2)","Acceleration y (m/s^2)","Acceleration z (m/s^2)"
4.955776400E-2,9.228450775E0,4.976946831E0,-7.918822169E-1
5.204729500E-2,9.166201591E0,5.005677223E0,-8.637082577E-1
5.453734700E-2,9.094375610E0,5.020042419E0,-9.020155072E-1
5.702812800E-2,9.012971878E0,5.082291603E0,-9.594763517E-1
5.951984700E-2,8.921992302E0,5.130175591E0,-1.016937137E0
6.201271200E-2,8.826224327E0,5.192424774E0,-1.036090732E0
6.450682600E-2,8.735244751E0,5.273828030E0,-1.060032845E0
6.700224300E-2,8.653841972E0,5.355230808E0,-1.055244446E0
6.950151400E-2,8.543708801E0,5.431845188E0,-1.069609642E0
7.200078500E-2,8.433575630E0,5.518036366E0,-1.093551636E0
7.445078500E-2,8.256404877E0,5.623381138E0,-1.107916832E0
7.690078500E-2,8.203732491E0,5.671265125E0,-1.117493629E0
7.940505500E-2,8.170213699E0,5.752667904E0,-1.141435623E0
8.190932600E-2,8.141483307E0,5.838859558E0,-1.179742932E0
8.445932600E-2,8.107964516E0,5.915473938E0,-1.222838521E0
8.700932600E-2,8.107964516E0,5.934627533E0,-1.270722508E0
8.955932600E-2,8.117541313E0,5.963357925E0,-1.332971811E0
9.210932600E-2,8.141483307E0,6.001665115E0,-1.385644197E0
9.465932600E-2,8.189367294E0,6.035183907E0,-1.423951507E0
9.720932600E-2,8.218097687E0,6.063914299E0,-1.462258697E0
9.975932600E-2,8.265981674E0,6.097433090E0,-1.443105102E0
1.023093260E-1,8.333019257E0,6.130951881E0,-1.428739905E0
1.048593260E-1,8.342596054E0,6.164470673E0,-1.366490602E0
1.074093260E-1,8.356961250E0,6.226719856E0,-1.280299306E0
1.099593260E-1,8.356961250E0,6.303334713E0,-1.222838521E0
1.125093260E-1,8.361749649E0,6.365583897E0,-1.155800819E0
1.150593260E-1,8.323442459E0,6.399102688E0,-1.064821243E0
1.176093260E-1,8.309077263E0,6.456563473E0,-1.016937137E0
1.201593260E-1,8.270770073E0,6.485293865E0,-9.403226972E-1
1.227093260E-1,8.242039680E0,6.499659061E0,-8.301894665E-1
1.252593260E-1,8.237251282E0,6.480505466E0,-7.009025216E-1
1.278093260E-1,8.198944092E0,6.461351871E0,-6.003460884E-1
1.303593260E-1,8.146271706E0,6.432621479E0,-4.997895956E-1
1.329093260E-1,8.107964516E0,6.437409878E0,-4.040215313E-1
1.354593260E-1,8.060079575E0,6.418256283E0,-2.986766696E-1
1.380093260E-1,8.002618790E0,6.423044682E0,-1.789665818E-1
1.405593260E-1,7.964312077E0,6.408679485E0,-1.071405262E-1
1.431093260E-1,7.926004887E0,6.399102688E0,-3.052607179E-2
1.456593260E-1,7.873332500E0,6.379949093E0,4.608838260E-2
1.482093260E-1,7.844601631E0,6.365583897E0,8.439560980E-2
1.507593260E-1,7.801506042E0,6.360795498E0,1.083376259E-1
1.533093260E-1,7.772775650E0,6.370372295E0,1.322796494E-1
1.558593260E-1,7.753622055E0,6.346430302E0,1.897404790E-1
1.584093260E-1,7.739256859E0,6.336853504E0,2.136825025E-1
1.609593260E-1,7.734468460E0,6.317699909E0,1.993172914E-1
1.635093260E-1,7.744045258E0,6.293757915E0,2.184709013E-1
1.660593260E-1,7.744045258E0,6.265027523E0,1.897404790E-1
1.686093260E-1,7.739256859E0,6.236296654E0,1.418564469E-1
1.711593260E-1,7.729680061E0,6.226719856E0,7.960720360E-2
1.737093260E-1,7.744045258E0,6.207566261E0,-3.052607179E-2
1.762593260E-1,7.753622055E0,6.221931458E0,-1.262941360E-1
1.788093260E-1,7.782352448E0,6.207566261E0,-2.029085904E-1
1.813593260E-1,7.806294441E0,6.202777863E0,-2.795230448E-1
1.839093260E-1,7.815871239E0,6.221931458E0,-3.369838893E-1
1.864593260E-1,7.858967304E0,6.226719856E0,-3.992331326E-1
1.890093260E-1,7.916428089E0,6.217143059E0,-4.710591733E-1
1.915122950E-1,7.973888874E0,6.217143059E0,-5.476736426E-1
1.940000030E-1,8.031349182E0,6.202777863E0,-6.482301354E-1
1.964877120E-1,8.079233170E0,6.183624268E0,-7.009025216E-1
1.989754200E-1,8.127118111E0,6.174047470E0,-7.200561762E-1
2.014631280E-1,8.175002098E0,6.145317078E0,-7.392097712E-1
2.039508370E-1,8.237251282E0,6.140528679E0,-7.392097712E-1
2.064385450E-1,8.299500465E0,6.135740280E0,-7.439981699E-1
2.089262530E-1,8.352172852E0,6.150105476E0,-7.775170207E-1
2.114139620E-1,8.404845238E0,6.150105476E0,-8.301894665E-1
2.139016700E-1,8.447940826E0,6.150105476E0,-8.780734539E-1
2.163893780E-1,8.467094421E0,6.159682274E0,-9.115923047E-1
2.188770870E-1,8.500613213E0,6.178835869E0,-9.882067442E-1
2.213647950E-1,8.491036415E0,6.188412666E0,-1.040879130E0
2.238525030E-1,8.486248016E0,6.217143059E0,-1.122282028E0
2.263402120E-1,8.467094421E0,6.226719856E0,-1.227626920E0
2.288279200E-1,8.419210434E0,6.236296654E0,-1.294664621E0
2.313156280E-1,8.352172852E0,6.241085052E0,-1.361702204E0
2.338033370E-1,8.289923668E0,6.231508255E0,-1.423951507E0
2.362910450E-1,8.237251282E0,6.241085052E0,-1.486200690E0
2.387787530E-1,8.194155693E0,6.226719856E0,-1.519719481E0
2.412664620E-1,8.141483307E0,6.212354660E0,-1.510142684E0
2.437541700E-1,8.079233170E0,6.197989464E0,-1.495777488E0
2.462418780E-1,8.007407188E0,6.174047470E0,-1.462258697E0
2.487295870E-1,7.983465672E0,6.135740280E0,-1.409586191E0
2.512172950E-1,7.983465672E0,6.092644691E0,-1.304241419E0
2.537050030E-1,8.012195587E0,6.049549103E0,-1.184531331E0
2.561927120E-1,8.064867973E0,6.006453514E0,-1.045667648E0
2.586804200E-1,8.122329712E0,5.982511520E0,-9.068039060E-1
2.611681280E-1,8.170213699E0,6.006453514E0,-8.110358119E-1
2.636558370E-1,8.208520889E0,6.035183907E0,-6.817489266E-1
2.661435450E-1,8.232462883E0,6.054337502E0,-5.285200477E-1
2.686312530E-1,8.275558472E0,6.092644691E0,-4.183867574E-1
2.711189620E-1,8.328230858E0,6.140528679E0,-3.178302646E-1
2.736066700E-1,8.385691643E0,6.202777863E0,-2.220622003E-1
2.760943780E-1,8.495824814E0,6.274604321E0,-1.885433793E-1
2.785820870E-1,8.634688377E0,6.346430302E0,-1.741781682E-1
2.810697950E-1,8.778340340E0,6.423044682E0,-1.885433793E-1
2.835575030E-1,8.960299492E0,6.523601055E0,-2.124854028E-1
2.860452120E-1,9.175778389E0,6.609792233E0,-2.316390127E-1
2.885329200E-1,9.400833130E0,6.686406612E0,-2.890998423E-1
2.910206280E-1,9.668983459E0,6.782175064E0,-3.561375141E-1
2.935083370E-1,9.951498985E0,6.868366241E0,-3.992331326E-1
2.959960450E-1,1.025795746E1,6.964134216E0,-5.045779943E-1
2.984837530E-1,1.056920338E1,7.055113792E0,-6.194996834E-1
3.009714620E-1,1.085650730E1,7.146093369E0,-7.439981699E-1
3.034591700E-1,1.112465858E1,7.246650219E0,-9.115923047E-1
3.059468780E-1,1.134013653E1,7.342418194E0,-1.093551636E0
3.084345870E-1,1.150773048E1,7.390302181E0,-1.309029818E0
3.109222950E-1,1.166095924E1,7.452551365E0,-1.471835494E0
3.134100030E-1,1.177109241E1,7.538742542E0,-1.620275974E0
3.158977120E-1,1.185728359E1,7.620145321E0,-1.739986062E0
3.183854200E-1,1.193868637E1,7.715913296E0,-1.816600561E0
3.208731280E-1,1.197220516E1,7.787739754E0,-1.898003340E0
3.233608370E-1,1.198178196E1,7.864354134E0,-1.988983035E0
3.258485450E-1,1.194826317E1,7.955333710E0,-2.065597534E0
3.283362530E-1,1.185728359E1,8.070255280E0,-2.108693123E0
3.308239620E-1,1.172320843E1,8.189965248E0,-2.118269920E0
3.333116700E-1,1.159392166E1,8.319252014E0,-2.108693123E0
3.357993780E-1,1.144069290E1,8.462904930E0,-2.094327927E0
3.382870870E-1,1.127309895E1,8.592191696E0,-2.065597534E0
3.407747950E-1,1.112465858E1,8.692748070E0,-2.070385933E0
3.432625030E-1,1.105283260E1,8.740632057E0,-2.056020737E0
3.457502120E-1,1.100015926E1,8.826823235E0,-2.075174332E0
3.482379200E-1,1.099537086E1,8.903437614E0,-2.075174332E0
3.507256280E-1,1.100973606E1,8.980051994E0,-2.079962730E0
3.532133370E-1,1.103846741E1,9.071031570E0,-2.113481522E0
3.557010450E-1,1.109592819E1,9.147645950E0,-2.156577110E0
3.581887530E-1,1.114860058E1,9.214683533E0,-2.185307503E0
3.606764620E-1,1.123958015E1,9.248202324E0,-2.218826532E0
3.631641700E-1,1.136407852E1,9.252990723E0,-2.233191729E0
3.656518780E-1,1.148857689E1,9.205106735E0,-2.223614931E0
3.681395870E-1,1.165138245E1,9.142857552E0,-2.199672699E0
3.706272950E-1,1.183813000E1,9.066243172E0,-2.142211914E0
3.731150030E-1,1.205360889E1,9.003993988E0,-2.084751129E0
3.756027120E-1,1.227866364E1,8.975263596E0,-2.008136749E0
3.780904200E-1,1.247977638E1,8.970475197E0,-1.984194636E0
3.805781280E-1,1.266173553E1,8.956110001E0,-1.945887446E0
3.830658370E-1,1.282932949E1,8.922591209E0,-1.917157054E0
3.855535450E-1,1.292509747E1,8.855553627E0,-1.898003340E0
3.880412530E-1,1.299213505E1,8.754997253E0,-1.830965757E0
3.905289620E-1,1.303044319E1,8.620922089E0,-1.711255670E0
3.930166700E-1,1.302565479E1,8.477270126E0,-1.591545582E0
3.955043780E-1,1.299213505E1,8.343194008E0,-1.433528304E0
3.979920870E-1,1.293467426E1,8.223484039E0,-1.265934110E0
4.004797950E-1,1.285327148E1,8.127716064E0,-1.098340034E0
4.029675030E-1,1.271440792E1,8.041524887E0,-9.738415480E-1
4.054552120E-1,1.256596756E1,7.940968513E0,-8.206126094E-1
4.079429200E-1,1.237443161E1,7.826046944E0,-6.242880821E-1
4.104306280E-1,1.216853046E1,7.715913296E0,-5.189431906E-1
4.129183370E-1,1.192432117E1,7.624933720E0,-4.040215313E-1
4.154060450E-1,1.161307526E1,7.557896137E0,-3.178302646E-1
4.178937530E-1,1.129704094E1,7.514800549E0,-2.316390127E-1
4.203814620E-1,1.095227528E1,7.500435352E0,-2.029085904E-1
4.228691700E-1,1.061229897E1,7.529165745E0,-1.598129570E-1
4.253568780E-1,1.032020664E1,7.577049732E0,-1.215057373E-1
4.278445870E-1,1.009515190E1,7.605780125E0,-6.404489279E-2
4.303322950E-1,9.865307808E0,7.644087315E0,-4.967968538E-2
4.328200030E-1,9.673771858E0,7.610568523E0,-4.967968538E-2
4.353077120E-1,9.510966301E0,7.548319340E0,-9.277531505E-2
4.377954200E-1,9.295488358E0,7.471704960E0,-1.262941360E-1
4.402831280E-1,9.051279068E0,7.433397770E0,-1.693897694E-1
4.427708370E-1,8.797493935E0,7.395090580E0,-2.268506140E-1
4.452585450E-1,8.553285599E0,7.395090580E0,-2.843114436E-1
4.477462530E-1,8.352172852E0,7.404667377E0,-3.274070919E-1
4.502339620E-1,8.203732491E0,7.428609371E0,-3.657143116E-1
4.527216700E-1,8.093599319E0,7.428609371E0,-3.944447339E-1
4.552093780E-1,8.012195587E0,7.380725384E0,-4.040215313E-1
4.576970870E-1,7.949946880E0,7.280169010E0,-4.088099301E-1
4.601847950E-1,7.930793285E0,7.131728172E0,-3.896563351E-1
4.626725030E-1,7.926004887E0,6.964134216E0,-3.513490856E-1
4.651602120E-1,7.988254070E0,6.786963463E0,-2.603694201E-1
4.676479200E-1,8.136694908E0,6.638522625E0,-1.693897694E-1
4.701356280E-1,8.289923668E0,6.509235859E0,-1.023521200E-1
4.726233370E-1,8.447940826E0,6.394314289E0,-6.883329898E-2
4.751110450E-1,8.610746384E0,6.284181118E0,-7.841010392E-2
4.775987530E-1,8.759186745E0,6.140528679E0,-7.841010392E-2
4.800864620E-1,8.907627106E0,5.934627533E0,-2.573766746E-2
4.825741700E-1,9.075222015E0,5.695207119E0,7.003039867E-2
4.850618780E-1,9.247604370E0,5.417479992E0,1.657984704E-1
4.875495870E-1,9.448717117E0,5.206789970E0,2.519897223E-1
4.900372950E-1,9.654618263E0,5.029619217E0,2.519897223E-1
4.925250030E-1,9.870096207E0,4.929062843E0,2.184709013E-1
4.950127120E-1,1.004247856E1,4.857236862E0,1.370680481E-1
4.975004200E-1,1.018134308E1,4.814141273E0,-1.795651275E-3
4.999881280E-1,1.030105305E1,4.780622005E0,-1.837549806E-1
5.024758370E-1,1.041118622E1,4.742314816E0,-4.327519536E-1
5.049635450E-1,1.044949341E1,4.684854031E0,-7.296329737E-1
5.074512530E-1,1.040639782E1,4.651335239E0,-1.002571940E0
5.099389620E-1,1.022443867E1,4.684854031E0,-1.275510907E0
5.124266700E-1,9.788693428E0,4.842871666E0,-1.505354285E0
5.149143780E-1,9.166201591E0,5.149329185E0,-1.672948480E0
5.174020870E-1,8.400056839E0,5.527613163E0,-1.816600561E0
5.198897950E-1,7.657854080E0,5.925050735E0,-1.988983035E0
5.223775030E-1,7.001842976E0,6.279392719E0,-2.194884300E0
5.248652120E-1,6.513425827E0,6.537966251E0,-2.348113298E0
5.273529200E-1,6.159083843E0,6.662464619E0,-2.501342297E0
5.298406280E-1,5.953182697E0,6.715137005E0,-2.640205860E0
5.323283370E-1,5.862202644E0,6.724713802E0,-2.759916067E0
5.348160450E-1,5.847837448E0,6.705560207E0,-2.855684042E0
5.373037530E-1,5.881356239E0,6.686406612E0,-2.932298422E0
5.397914620E-1,5.957971096E0,6.638522625E0,-2.999336243E0
5.422791700E-1,6.053739071E0,6.542754650E0,-3.056797028E0
5.447668780E-1,6.159083843E0,6.403891087E0,-3.171718597E0
5.472545870E-1,6.274005413E0,6.260239124E0,-3.301005602E0
5.497422950E-1,6.364984989E0,6.111798286E0,-3.358466387E0
5.522300030E-1,6.479907036E0,5.996876717E0,-3.372831583E0
5.547177120E-1,6.590040207E0,5.877166748E0,-3.339312792E0
5.572054200E-1,6.752845764E0,5.709572315E0,-3.219602823E0
5.596931280E-1,6.982689381E0,5.546766758E0,-3.056797028E0
5.621808370E-1,7.222109318E0,5.388749599E0,-2.836530447E0
5.646685450E-1,7.475894928E0,5.225943565E0,-2.644994259E0
5.671562530E-1,7.700949669E0,5.063138008E0,-2.491765499E0
5.696439620E-1,7.897274494E0,4.905120850E0,-2.362478495E0
5.721316700E-1,8.084021568E0,4.751891613E0,-2.228403330E0
5.746193780E-1,8.251616478E0,4.565144062E0,-2.099116325E0
5.771070870E-1,8.404845238E0,4.359242916E0,-1.965041041E0
5.795947950E-1,8.558073997E0,4.201225281E0,-1.811812162E0
5.820825030E-1,8.744821548E0,4.062361717E0,-1.663371682E0
5.845702120E-1,8.912415504E0,3.947440147E0,-1.510142684E0
5.870579200E-1,9.036913872E0,3.866037130E0,-1.423951507E0
5.895456280E-1,9.084798813E0,3.813364744E0,-1.400009394E0
5.920333370E-1,8.984241486E0,3.846883535E0,-1.419163108E0
5.945210450E-1,8.759186745E0,3.885190725E0,-1.457470298E0
5.970087530E-1,8.438364029E0,3.971382141E0,-1.481412292E0
5.994964620E-1,8.031349182E0,4.091092110E0,-1.486200690E0
6.019841700E-1,7.566874504E0,4.253897667E0,-1.481412292E0
6.044718780E-1,7.064092159E0,4.445434093E0,-1.433528304E0
6.069595870E-1,6.628347397E0,4.646546841E0,-1.361702204E0
6.094472950E-1,6.250063419E0,4.828506470E0,-1.337760210E0
6.119350030E-1,5.962759495E0,4.996100426E0,-1.323395014E0
6.144227120E-1,5.708973885E0,5.120598793E0,-1.361702204E0
6.169104200E-1,5.431246758E0,5.235520363E0,-1.433528304E0
6.193981280E-1,5.120000362E0,5.379172802E0,-1.519719481E0
6.218858370E-1,4.780023575E0,5.503671169E0,-1.706467271E0
6.243735450E-1,4.478354454E0,5.623381138E0,-1.878849745E0
6.268612530E-1,4.262876034E0,5.699995518E0,-2.051232338E0
6.293489620E-1,4.205415249E0,5.695207119E0,-2.151788712E0
6.318366700E-1,4.301183224E0,5.580285549E0,-2.199672699E0
6.343243780E-1,4.593276024E0,5.383961201E0,-2.209249735E0
6.368120870E-1,5.029020786E0,5.144540787E0,-2.127846718E0
6.392997950E-1,5.546168327E0,4.943428040E0,-1.969829440E0
6.417875030E-1,6.082469463E0,4.771045208E0,-1.830965757E0
6.442752120E-1,6.532579422E0,4.622604847E0,-1.830965757E0
6.467629200E-1,6.939593792E0,4.435857296E0,-1.926733851E0
6.492506280E-1,7.317877293E0,4.234744072E0,-2.032078743E0
6.517383370E-1,7.648277283E0,4.038419724E0,-2.142211914E0
6.542260450E-1,7.926004887E0,3.856460333E0,-2.276287317E0
6.567137530E-1,8.141483307E0,3.712808371E0,-2.429516077E0
6.592014620E-1,8.328230858E0,3.593098164E0,-2.597110271E0
6.616891700E-1,8.524555206E0,3.506906986E0,-2.735974073E0
6.641768780E-1,8.711302757E0,3.435081005E0,-2.884414434E0
6.666645870E-1,8.883685112E0,3.382408381E0,-3.056797028E0
6.691522950E-1,9.012971878E0,3.368043184E0,-3.253121614E0
6.716400030E-1,9.137471199E0,3.382408381E0,-3.492541790E0
6.741277120E-1,9.204508781E0,3.406350374E0,-3.760692358E0
6.766154200E-1,9.271546364E0,3.401561975E0,-3.976170540E0
6.791031280E-1,9.338583946E0,3.435081005E0,-4.201225281E0
6.815908370E-1,9.415198326E0,3.468599796E0,-4.359242916E0
6.840785450E-1,9.434351921E0,3.540425777E0,-4.455010891E0
6.865662530E-1,9.343372345E0,3.655347347E0,-4.512471676E0
6.890539620E-1,9.118317604E0,3.784634352E0,-4.541202068E0
6.915416700E-1,8.845377922E0,3.942651749E0,-4.536413670E0
6.940293780E-1,8.572439194E0,4.115034103E0,-4.531625271E0
6.965170870E-1,8.323442459E0,4.287416458E0,-4.493318081E0
6.990047950E-1,7.954735279E0,4.440645695E0,-4.421492100E0
7.014925030E-1,7.337030888E0,4.613028049E0,-4.344877720E0
7.039802120E-1,6.503849030E0,4.914697647E0,-4.215590477E0
7.064679200E-1,5.622782707E0,5.283404827E0,-4.033631325E0
7.089556280E-1,4.875791550E0,5.656899929E0,-3.875613928E0
7.114433370E-1,4.382586002E0,5.925050735E0,-3.684077978E0
7.139310450E-1,4.186261654E0,5.992088318E0,-3.535637379E0
7.164187530E-1,4.286818027E0,5.910685539E0,-3.363254786E0
7.189064620E-1,4.641160011E0,5.680841923E0,-3.233968019E0
7.213941700E-1,5.124788761E0,5.336077213E0,-3.152565002E0
7.238818780E-1,5.617994308E0,4.981735229E0,-3.109469414E0
7.263695870E-1,6.077681065E0,4.651335239E0,-3.047220230E0
7.288572950E-1,6.499060631E0,4.354454517E0,-3.047220230E0
7.313450030E-1,6.853402138E0,4.081515312E0,-3.071162224E0
7.338327120E-1,7.174225330E0,3.866037130E0,-3.042431831E0
7.363204200E-1,7.437587738E0,3.660135746E0,-3.028066635E0
7.388081280E-1,7.662642479E0,3.459022999E0,-2.927510023E0
7.412958370E-1,7.844601631E0,3.243544817E0,-2.798223257E0
7.437835450E-1,7.945158482E0,3.013701439E0,-2.601898670E0
7.462712530E-1,8.045714378E0,2.803011656E0,-2.410362482E0
7.487589620E-1,8.117541313E0,2.630629063E0,-2.237980127E0
7.512466700E-1,8.218097687E0,2.477400303E0,-2.060809135E0
7.537343780E-1,8.342596054E0,2.400785685E0,-1.926733851E0
7.562220870E-1,8.471882820E0,2.348113298E0,-1.811812162E0
7.587097950E-1,8.605957985E0,2.290652514E0,-1.754351258E0
7.611975030E-1,8.682572365E0,2.252345324E0,-1.792658567E0
7.636852120E-1,8.744821548E0,2.223614931E0,-1.888426542E0
7.661729200E-1,8.768763542E0,2.223614931E0,-2.017713547E0
7.686606280E-1,8.768763542E0,2.290652514E0,-2.151788712E0
7.711483370E-1,8.797493935E0,2.343324900E0,-2.333748102E0
7.736360450E-1,8.821435928E0,2.386420488E0,-2.472611904E0
7.761237530E-1,8.807070732E0,2.434304476E0,-2.621052265E0
7.786114620E-1,8.658630371E0,2.477400303E0,-2.807800055E0
7.810991700E-1,8.294712067E0,2.611475468E0,-2.956240654E0
7.835868780E-1,7.653065681E0,2.841318846E0,-3.095104218E0
7.860745870E-1,6.748057365E0,3.200449228E0,-3.138199806E0
7.885622950E-1,5.646724701E0,3.645770550E0,-3.128623009E0
7.910500030E-1,4.507084846E0,4.158129692E0,-3.104681015E0
7.935377120E-1,3.511096716E0,4.632181644E0,-3.071162224E0
7.960254200E-1,2.802412987E0,5.015254021E0,-2.975394249E0
7.985131280E-1,2.433706045E0,5.240308762E0,-2.798223257E0
8.010008370E-1,2.428917646E0,5.283404827E0,-2.534861088E0
8.034885450E-1,2.759317398E0,5.168482780E0,-2.209249735E0
8.059762530E-1,3.458424330E0,4.823718071E0,-1.677736878E0
8.084639620E-1,4.133589268E0,4.368819714E0,-1.241992116E0
8.109516700E-1,4.703409195E0,4.162918091E0,-9.451110959E-1
8.134393780E-1,5.503072739E0,3.942651749E0,-8.062474132E-1
8.159270870E-1,6.297947407E0,3.573944569E0,-8.780734539E-1
8.184147950E-1,6.920440197E0,3.162141800E0,-1.103128433E0
8.209025030E-1,7.428010941E0,2.817376852E0,-1.304241419E0
8.233902120E-1,7.787140846E0,2.597110271E0,-1.457470298E0
8.258779200E-1,7.993042469E0,2.448669672E0,-1.620275974E0
8.283656280E-1,8.088809967E0,2.415150881E0,-1.763928056E0
8.308533370E-1,8.131906509E0,2.400785685E0,-1.955464244E0
8.333410450E-1,8.093599319E0,2.357690096E0,-2.199672699E0
8.358287530E-1,8.021772385E0,2.300229311E0,-2.472611904E0
8.383164620E-1,7.926004887E0,2.237980127E0,-2.764704466E0
8.408041700E-1,7.815871239E0,2.233191729E0,-3.061585426E0
8.432918780E-1,7.686584473E0,2.281075716E0,-3.334524393E0
8.457795870E-1,7.566874504E0,2.338536501E0,-3.593098164E0
8.482672950E-1,7.466318130E0,2.410362482E0,-3.880402327E0
8.507550030E-1,7.375338554E0,2.477400303E0,-4.148552895E0
8.532427120E-1,7.274781704E0,2.539649487E0,-4.416703701E0
8.557304200E-1,7.116764545E0,2.582745075E0,-4.646546841E0
8.582181280E-1,6.853402138E0,2.621052265E0,-4.852448463E0
8.607058370E-1,6.542156219E0,2.678513050E0,-4.976946831E0
8.631935450E-1,6.168660641E0,2.731185675E0,-4.991312027E0
8.656812530E-1,5.747281075E0,2.817376852E0,-4.890755653E0
8.681689620E-1,5.311536312E0,2.961029053E0,-4.723161221E0
8.706566700E-1,4.904522419E0,3.104681015E0,-4.531625271E0
8.731443780E-1,4.607641220E0,3.262698412E0,-4.330512524E0
8.756320870E-1,4.487931252E0,3.344101191E0,-4.124610901E0
8.781197950E-1,4.535815239E0,3.358466387E0,-3.923498154E0
8.806075030E-1,4.756081581E0,3.272275209E0,-3.698443174E0
8.830952120E-1,5.115211964E0,3.109469414E0,-3.430292368E0
8.855829200E-1,5.531803131E0,2.870049238E0,-3.133411407E0
8.880706280E-1,5.991489887E0,2.611475468E0,-2.812588453E0
8.905583370E-1,6.432023048E0,2.362478495E0,-2.453458309E0
8.930460450E-1,6.853402138E0,2.151788712E0,-2.065597534E0
8.955337530E-1,7.255628109E0,1.955464244E0,-1.668160081E0
8.980214620E-1,7.600393295E0,1.797446966E0,-1.275510907E0
