"Time (s)","Acceleration x (m/s^2)","Acceleration y (m/s^2)","Acceleration z (m/s^2)"
3.061120900E-2,-6.266822815E0,-4.164115429E0,6.271012783E0
3.310334400E-2,-6.257246017E0,-4.159327030E0,6.271012783E0
3.559574000E-2,-6.252457619E0,-4.149750233E0,6.294954777E0
3.808855300E-2,-6.262034416E0,-4.149750233E0,6.333261967E0
4.058188600E-2,-6.281188011E0,-4.168903828E0,6.338050365E0
4.307579200E-2,-6.305130005E0,-4.168903828E0,6.347627163E0
4.557381300E-2,-6.324283600E0,-4.192845821E0,6.338050365E0
4.807183400E-2,-6.329071999E0,-4.207211018E0,6.323685169E0
5.052183400E-2,-6.353013992E0,-4.202422619E0,6.271012783E0
5.297183400E-2,-6.362590790E0,-4.202422619E0,6.256647587E0
5.547568800E-2,-6.381744862E0,-4.168903828E0,6.237493992E0
5.797954200E-2,-6.391321659E0,-4.140173435E0,6.199186802E0
6.052954200E-2,-6.420052052E0,-4.121019840E0,6.156091213E0
6.307954200E-2,-6.448782444E0,-4.077924252E0,6.084265232E0
6.562954200E-2,-6.477512836E0,-4.073135853E0,6.007650852E0
6.817954200E-2,-6.515820026E0,-4.068347454E0,5.911882401E0
7.072954200E-2,-6.534973621E0,-4.068347454E0,5.820902824E0
7.327954200E-2,-6.549338818E0,-4.077924252E0,5.782595634E0
7.582954200E-2,-6.587646008E0,-4.058770657E0,5.749076843E0
7.837954200E-2,-6.625953197E0,-4.039616585E0,5.729923248E0
8.092954200E-2,-6.683413982E0,-4.010886192E0,5.696404457E0
8.347954200E-2,-6.731297970E0,-3.986944437E0,5.710769653E0
8.602954200E-2,-6.774393559E0,-3.963002443E0,5.734711647E0
8.857954200E-2,-6.803123951E0,-3.963002443E0,5.710769653E0
9.112954200E-2,-6.807912350E0,-3.977367640E0,5.677250862E0
9.367954200E-2,-6.807912350E0,-3.982156038E0,5.667674065E0
9.622954200E-2,-6.798335552E0,-3.991732836E0,5.610213280E0
9.877954200E-2,-6.764816761E0,-4.006097794E0,5.586271286E0
1.013295420E-1,-6.721721172E0,-4.020462990E0,5.567117691E0
1.038795420E-1,-6.669048786E0,-4.049193859E0,5.576694489E0
1.064295420E-1,-6.649895191E0,-4.073135853E0,5.605424881E0
1.089795420E-1,-6.625953197E0,-4.097077847E0,5.624578476E0
1.115295420E-1,-6.616376400E0,-4.111443043E0,5.705981255E0
1.140795420E-1,-6.582857609E0,-4.144961834E0,5.787384033E0
1.166295420E-1,-6.573280811E0,-4.154538631E0,5.892728806E0
1.191795420E-1,-6.554127216E0,-4.154538631E0,5.983708382E0
1.217295420E-1,-6.534973621E0,-4.159327030E0,6.093842030E0
1.242795420E-1,-6.525396824E0,-4.202422619E0,6.170456409E0
1.268295420E-1,-6.515820026E0,-4.235941410E0,6.223128796E0
1.293795420E-1,-6.511031628E0,-4.250306606E0,6.299743176E0
1.319295420E-1,-6.511031628E0,-4.255095005E0,6.371569157E0
1.344795420E-1,-6.477512836E0,-4.240729809E0,6.433818340E0
1.370295420E-1,-6.434417248E0,-4.245518208E0,6.481702328E0
1.395795420E-1,-6.391321659E0,-4.235941410E0,6.515221596E0
1.421295420E-1,-6.362590790E0,-4.250306606E0,6.582259178E0
1.446795420E-1,-6.338648796E0,-4.269460201E0,6.615777969E0
1.472295420E-1,-6.329071999E0,-4.264671803E0,6.620566368E0
1.497795420E-1,-6.314706802E0,-4.264671803E0,6.620566368E0
1.523295420E-1,-6.333860397E0,-4.264671803E0,6.596624374E0
1.548795420E-1,-6.353013992E0,-4.245518208E0,6.610989571E0
1.574295420E-1,-6.381744862E0,-4.240729809E0,6.591835976E0
1.599795420E-1,-6.400898457E0,-4.207211018E0,6.577470779E0
1.625295420E-1,-6.439205647E0,-4.188057423E0,6.567893982E0
1.650777190E-1,-6.482301235E0,-4.168903828E0,6.563105583E0
1.675654800E-1,-6.520608425E0,-4.164115429E0,6.548740387E0
1.700532400E-1,-6.539762020E0,-4.144961834E0,6.515221596E0
1.725410000E-1,-6.539762020E0,-4.116231441E0,6.467337132E0
1.750287610E-1,-6.554127216E0,-4.116231441E0,6.414664745E0
1.775165210E-1,-6.563704014E0,-4.101866245E0,6.328473568E0
1.800042820E-1,-6.597222805E0,-4.097077847E0,6.247070789E0
1.824920420E-1,-6.621164799E0,-4.092289448E0,6.141726017E0
1.849798030E-1,-6.645106792E0,-4.092289448E0,6.079476833E0
1.874675630E-1,-6.673837185E0,-4.077924252E0,6.036381245E0
1.899553230E-1,-6.683413982E0,-4.049193859E0,6.012439251E0
1.924430840E-1,-6.697779179E0,-4.025251389E0,5.998073578E0
1.949308440E-1,-6.716932774E0,-4.006097794E0,5.978919983E0
1.974186050E-1,-6.721721172E0,-4.001309395E0,5.969343185E0
1.999063650E-1,-6.736086369E0,-3.991732836E0,5.945401192E0
2.023941250E-1,-6.721721172E0,-4.015674591E0,5.907094002E0
2.048818860E-1,-6.716932774E0,-4.053982258E0,5.863998413E0
2.073696460E-1,-6.697779179E0,-4.082712650E0,5.825691223E0
2.098574070E-1,-6.716932774E0,-4.101866245E0,5.820902824E0
2.123451670E-1,-6.726509571E0,-4.097077847E0,5.787384033E0
2.148329280E-1,-6.731297970E0,-4.077924252E0,5.787384033E0
2.173206880E-1,-6.736086369E0,-4.053982258E0,5.801749229E0
2.198084480E-1,-6.726509571E0,-4.039616585E0,5.820902824E0
2.222962090E-1,-6.740874767E0,-4.020462990E0,5.825691223E0
2.247839690E-1,-6.745663166E0,-4.025251389E0,5.859210014E0
2.272717300E-1,-6.750451565E0,-4.020462990E0,5.883152008E0
2.297594900E-1,-6.750451565E0,-4.015674591E0,5.907094002E0
2.322472500E-1,-6.745663166E0,-4.025251389E0,5.907094002E0
2.347350110E-1,-6.740874767E0,-3.996521235E0,5.907094002E0
2.372227710E-1,-6.750451565E0,-4.001309395E0,5.911882401E0
2.397105320E-1,-6.731297970E0,-3.996521235E0,5.940612793E0
2.421982920E-1,-6.707355976E0,-3.963002443E0,5.964554787E0
2.446860530E-1,-6.688202381E0,-3.939060450E0,6.007650852E0
2.471738130E-1,-6.688202381E0,-3.943848848E0,6.045958042E0
2.496615730E-1,-6.678625584E0,-3.967790842E0,6.108207226E0
2.521493340E-1,-6.669048786E0,-3.991732836E0,6.127360821E0
2.546370940E-1,-6.664260387E0,-4.006097794E0,6.184821606E0
2.571248550E-1,-6.654683590E0,-4.039616585E0,6.199186802E0
2.596126150E-1,-6.664260387E0,-4.073135853E0,6.232705593E0
2.621003750E-1,-6.649895191E0,-4.073135853E0,6.256647587E0
2.645881360E-1,-6.654683590E0,-4.063559055E0,6.294954777E0
2.670758960E-1,-6.659471989E0,-4.068347454E0,6.271012783E0
2.695636570E-1,-6.625953197E0,-4.068347454E0,6.271012783E0
2.720514170E-1,-6.587646008E0,-4.073135853E0,6.247070789E0
2.745391780E-1,-6.563704014E0,-4.082712650E0,6.203975201E0
2.770269380E-1,-6.544550419E0,-4.121019840E0,6.136937618E0
2.795146980E-1,-6.515820026E0,-4.135385036E0,6.108207226E0
2.820024590E-1,-6.496666431E0,-4.149750233E0,6.079476833E0
2.844902190E-1,-6.491878033E0,-4.149750233E0,6.045958042E0
2.869779800E-1,-6.506243229E0,-4.144961834E0,6.050746441E0
2.894657400E-1,-6.506243229E0,-4.140173435E0,6.055534840E0
2.919535000E-1,-6.511031628E0,-4.154538631E0,6.055534840E0
2.944412610E-1,-6.525396824E0,-4.144961834E0,6.065111637E0
2.969290210E-1,-6.520608425E0,-4.144961834E0,6.117784023E0
2.994167820E-1,-6.558915615E0,-4.159327030E0,6.141726017E0
3.019045420E-1,-6.568492413E0,-4.164115429E0,6.151302814E0
3.043923030E-1,-6.568492413E0,-4.183269024E0,6.180033207E0
3.068800630E-1,-6.573280811E0,-4.188057423E0,6.203975201E0
3.093678230E-1,-6.606799603E0,-4.183269024E0,6.242282391E0
3.118555840E-1,-6.635529995E0,-4.188057423E0,6.280589581E0
3.143433440E-1,-6.692990780E0,-4.178480625E0,6.275801182E0
3.168311050E-1,-6.750451565E0,-4.159327030E0,6.237493992E0
3.193188650E-1,-6.779181957E0,-4.140173435E0,6.194398403E0
3.218066250E-1,-6.793547153E0,-4.097077847E0,6.127360821E0
3.242943860E-1,-6.807912350E0,-4.073135853E0,6.026804447E0
3.267821460E-1,-6.788758755E0,-4.044404984E0,5.926247597E0
3.292699070E-1,-6.769605160E0,-4.034828186E0,5.820902824E0
3.317576670E-1,-6.755239964E0,-4.039616585E0,5.729923248E0
3.342454280E-1,-6.726509571E0,-4.020462990E0,5.658097267E0
3.367331880E-1,-6.702567577E0,-4.010886192E0,5.595848083E0
3.392209480E-1,-6.692990780E0,-4.001309395E0,5.557540894E0
3.417087090E-1,-6.707355976E0,-3.991732836E0,5.528810501E0
3.441964690E-1,-6.740874767E0,-4.006097794E0,5.500079632E0
3.466842300E-1,-6.803123951E0,-4.015674591E0,5.452195644E0
3.491719900E-1,-6.874950409E0,-4.030039787E0,5.423465252E0
3.516597500E-1,-6.937199593E0,-4.030039787E0,5.423465252E0
3.541475110E-1,-6.970718384E0,-4.020462990E0,5.423465252E0
3.566352710E-1,-6.985083580E0,-4.001309395E0,5.399523258E0
3.591230320E-1,-6.994660378E0,-3.991732836E0,5.394734859E0
3.616107920E-1,-6.999448776E0,-4.001309395E0,5.394734859E0
3.640985530E-1,-7.013813972E0,-4.006097794E0,5.389946461E0
3.665863130E-1,-7.013813972E0,-4.034828186E0,5.380369663E0
3.690740730E-1,-7.009025574E0,-4.058770657E0,5.380369663E0
3.715618340E-1,-7.018602371E0,-4.111443043E0,5.404311657E0
3.740495940E-1,-7.052121162E0,-4.154538631E0,5.413888454E0
3.765373550E-1,-7.095216751E0,-4.207211018E0,5.466560841E0
3.790251150E-1,-7.143100739E0,-4.226364613E0,5.533598900E0
3.815128750E-1,-7.176619530E0,-4.197634220E0,5.643732071E0
3.840006360E-1,-7.238868713E0,-4.164115429E0,5.768230438E0
3.864883960E-1,-7.296329498E0,-4.116231441E0,5.878363609E0
3.889761570E-1,-7.372944355E0,-4.082712650E0,5.998073578E0
3.914639170E-1,-7.444770336E0,-4.058770657E0,6.098630428E0
3.939516780E-1,-7.511807919E0,-4.044404984E0,6.199186802E0
3.964394380E-1,-7.574057102E0,-4.053982258E0,6.338050365E0
3.989271980E-1,-7.621941090E0,-4.082712650E0,6.505644798E0
4.014149590E-1,-7.684190273E0,-4.121019840E0,6.701969147E0
4.039027190E-1,-7.741651058E0,-4.221576214E0,6.874351501E0
4.063904800E-1,-7.842207432E0,-4.365228176E0,7.027580738E0
4.088782400E-1,-7.942764282E0,-4.484938145E0,7.128137112E0
4.113660000E-1,-8.033743858E0,-4.585494995E0,7.214328289E0
4.138537610E-1,-8.095993042E0,-4.614225388E0,7.281365871E0
4.163415210E-1,-8.124723434E0,-4.628590584E0,7.338826656E0
4.188292820E-1,-8.148665428E0,-4.628590584E0,7.362768650E0
4.213170420E-1,-8.172607422E0,-4.590283394E0,7.372345448E0
4.238048030E-1,-8.172607422E0,-4.551976204E0,7.329249859E0
4.262925630E-1,-8.186972618E0,-4.523245335E0,7.295731068E0
4.287803230E-1,-8.206126213E0,-4.494514942E0,7.281365871E0
4.312680840E-1,-8.225279808E0,-4.480149746E0,7.262212276E0
4.337558440E-1,-8.263586998E0,-4.489726543E0,7.267000675E0
4.362436050E-1,-8.340201378E0,-4.504091740E0,7.267000675E0
4.387313650E-1,-8.445546150E0,-4.551976204E0,7.262212276E0
4.412191250E-1,-8.565256119E0,-4.599860191E0,7.262212276E0
4.437068860E-1,-8.665813446E0,-4.623802185E0,7.262212276E0
4.461946460E-1,-8.742427826E0,-4.623802185E0,7.271789074E0
4.486824070E-1,-8.785523415E0,-4.609436989E0,7.262212276E0
4.511701670E-1,-8.819042206E0,-4.585494995E0,7.243058681E0
4.536579280E-1,-8.814253807E0,-4.561553001E0,7.223905087E0
4.561456880E-1,-8.833407402E0,-4.537611008E0,7.204751492E0
4.586334480E-1,-8.895656586E0,-4.504091740E0,7.161655903E0
4.611212090E-1,-8.953117371E0,-4.451419353E0,7.137713909E0
4.636089690E-1,-9.053673744E0,-4.398746967E0,7.094618320E0
4.660967300E-1,-9.168595314E0,-4.360439777E0,7.022792339E0
4.685844900E-1,-9.293093681E0,-4.302978992E0,6.960542679E0
4.710722500E-1,-9.422380447E0,-4.259883404E0,6.903081894E0
4.735600110E-1,-9.561244011E0,-4.216787815E0,6.826467514E0
4.760477710E-1,-9.671378136E0,-4.183269024E0,6.764218330E0
4.785355320E-1,-9.757569313E0,-4.149750233E0,6.706757545E0
4.810232920E-1,-9.843760490E0,-4.116231441E0,6.625354767E0
4.835110530E-1,-9.939528465E0,-4.111443043E0,6.515221596E0
4.859988130E-1,-1.003050804E1,-4.125808239E0,6.414664745E0
4.884865730E-1,-1.010233402E1,-4.125808239E0,6.357203960E0
4.909743340E-1,-1.013106441E1,-4.111443043E0,6.342838764E0
4.934620940E-1,-1.015021801E1,-4.092289448E0,6.376357555E0
4.959498550E-1,-1.014064121E1,-4.092289448E0,6.472125530E0
4.984376150E-1,-1.015500641E1,-4.125808239E0,6.620566368E0
5.009253750E-1,-1.022683239E1,-4.168903828E0,6.769006729E0
5.034131360E-1,-1.032738876E1,-4.226364613E0,6.922235489E0
5.059008960E-1,-1.039921474E1,-4.288613796E0,7.094618320E0
5.083886570E-1,-1.047104073E1,-4.326920986E0,7.319673061E0
5.108764170E-1,-1.057159805E1,-4.336497784E0,7.549516678E0
5.133641780E-1,-1.071525002E1,-4.317344189E0,7.803301811E0
5.158519380E-1,-1.084932518E1,-4.288613796E0,8.023568153E0
5.183396980E-1,-1.097861195E1,-4.231153011E0,8.176796913E0
5.208274590E-1,-1.106480312E1,-4.183269024E0,8.272565842E0
5.233152190E-1,-1.112226391E1,-4.135385036E0,8.286931038E0
5.258029800E-1,-1.115099430E1,-4.058770657E0,8.248623848E0
5.282907400E-1,-1.116057110E1,-4.001309395E0,8.138489723E0
5.307785000E-1,-1.111747551E1,-3.972579241E0,8.009202957E0
5.332662610E-1,-1.104564953E1,-3.948637247E0,7.851185799E0
5.357540210E-1,-1.096424675E1,-3.924695253E0,7.693168640E0
5.382417820E-1,-1.089242077E1,-3.915118217E0,7.515997887E0
5.407295420E-1,-1.086847878E1,-3.915118217E0,7.324461460E0
5.432173030E-1,-1.087326717E1,-3.948637247E0,7.128137112E0
5.457050630E-1,-1.090678596E1,-3.977367640E0,6.931812286E0
5.481928230E-1,-1.095466995E1,-3.982156038E0,6.769006729E0
5.506805840E-1,-1.104086113E1,-3.943848848E0,6.610989571E0
5.531683440E-1,-1.106959152E1,-3.867234230E0,6.467337132E0
5.556561050E-1,-1.107916832E1,-3.800196648E0,6.338050365E0
5.581438650E-1,-1.108874512E1,-3.733159065E0,6.189610004E0
5.606316250E-1,-1.105043793E1,-3.685275078E0,6.031592846E0
5.631193340E-1,-1.100255394E1,-3.661332846E0,5.868786812E0
5.656070420E-1,-1.094988155E1,-3.646967649E0,5.725134850E0
5.680947500E-1,-1.088763237E1,-3.642179251E0,5.605424881E0
5.705824590E-1,-1.082059479E1,-3.656544447E0,5.519233704E0
5.730701670E-1,-1.078228760E1,-3.670909643E0,5.456984043E0
5.755578750E-1,-1.074398041E1,-3.709217072E0,5.437830448E0
5.780455840E-1,-1.075355721E1,-3.771466255E0,5.452195644E0
5.805332920E-1,-1.074398041E1,-3.838503838E0,5.524022102E0
5.830210000E-1,-1.073440361E1,-3.886387825E0,5.595848083E0
5.855087090E-1,-1.072961521E1,-3.929483652E0,5.715558052E0
5.879964170E-1,-1.071525002E1,-3.967790842E0,5.844844818E0
5.904841250E-1,-1.067694283E1,-4.006097794E0,5.978919983E0
5.929718340E-1,-1.061948204E1,-4.030039787E0,6.098630428E0
5.954595420E-1,-1.056680965E1,-4.044404984E0,6.251859188E0
5.979472500E-1,-1.050934792E1,-4.073135853E0,6.342838764E0
6.004349590E-1,-1.046146393E1,-4.077924252E0,6.385934353E0
6.029226670E-1,-1.043273354E1,-4.135385036E0,6.414664745E0
6.054103750E-1,-1.039921474E1,-4.183269024E0,6.424241543E0
6.078980840E-1,-1.037527275E1,-4.211999416E0,6.414664745E0
6.103857920E-1,-1.036569595E1,-4.231153011E0,6.424241543E0
6.128735000E-1,-1.029386997E1,-4.216787815E0,6.429029942E0
6.153612090E-1,-1.017894840E1,-4.202422619E0,6.414664745E0
6.178489170E-1,-1.003529644E1,-4.183269024E0,6.366780758E0
6.203366250E-1,-9.925163269E0,-4.149750233E0,6.304531574E0
6.228243340E-1,-9.848548889E0,-4.154538631E0,6.223128796E0
6.253120940E-1,-9.781511307E0,-4.168903828E0,6.141726017E0
6.277998550E-1,-9.743204117E0,-4.164115429E0,6.084265232E0
6.302876150E-1,-9.724050522E0,-4.140173435E0,6.055534840E0
6.327753750E-1,-9.724050522E0,-4.111443043E0,6.017227650E0
6.352631360E-1,-9.728838921E0,-4.077924252E0,5.998073578E0
6.377508960E-1,-9.752780914E0,-4.039616585E0,5.998073578E0
6.402386570E-1,-9.762357712E0,-3.991732836E0,5.974131584E0
6.427264170E-1,-9.762357712E0,-3.948637247E0,5.940612793E0
6.452141780E-1,-9.709685326E0,-3.891176224E0,5.921459198E0
6.477019380E-1,-9.647436142E0,-3.838503838E0,5.878363609E0
6.501896980E-1,-9.556455612E0,-3.795408249E0,5.849633217E0
6.526774590E-1,-9.513360023E0,-3.785831451E0,5.773018837E0
6.551652190E-1,-9.460687637E0,-3.761889458E0,5.672462463E0
6.576529800E-1,-9.441534042E0,-3.761889458E0,5.562329292E0
6.601407400E-1,-9.446322441E0,-3.766677856E0,5.480926037E0
6.626285000E-1,-9.451110840E0,-3.752312660E0,5.466560841E0
6.651162610E-1,-9.441534042E0,-3.747524261E0,5.476137638E0
6.676040210E-1,-9.451110840E0,-3.728370667E0,5.543175697E0
6.700917820E-1,-9.451110840E0,-3.690063477E0,5.600636482E0
6.725795420E-1,-9.441534042E0,-3.666121244E0,5.595848083E0
6.750673030E-1,-9.427168846E0,-3.666121244E0,5.595848083E0
6.775550630E-1,-9.422380447E0,-3.670909643E0,5.595848083E0
6.800428230E-1,-9.408015251E0,-3.680486679E0,5.576694489E0
6.825305840E-1,-9.379284859E0,-3.675698042E0,5.538387299E0
6.850183440E-1,-9.345766068E0,-3.666121244E0,5.519233704E0
6.875061050E-1,-9.317035675E0,-3.651756048E0,5.504868031E0
6.899938650E-1,-9.297882080E0,-3.618237257E0,5.490502834E0
6.924816250E-1,-9.307458878E0,-3.555988073E0,5.466560841E0
6.949693860E-1,-9.312247276E0,-3.512892485E0,5.476137638E0
6.974571460E-1,-9.293093681E0,-3.465008497E0,5.471349239E0
6.999449070E-1,-9.273940086E0,-3.436278105E0,5.418676853E0
7.024326670E-1,-9.259574890E0,-3.412335873E0,5.342062473E0
7.049204280E-1,-9.240421295E0,-3.388393879E0,5.294178486E0
7.074081880E-1,-9.216479301E0,-3.393182278E0,5.203198910E0
7.098959480E-1,-9.192537308E0,-3.383605480E0,5.088277340E0
7.123837090E-1,-9.163806915E0,-3.364451885E0,4.958990097E0
7.148714690E-1,-9.159018517E0,-3.359663486E0,4.858433723E0
7.173592300E-1,-9.125499725E0,-3.330933094E0,4.800972939E0
7.198469900E-1,-9.101557732E0,-3.316567898E0,4.733935356E0
7.223347500E-1,-9.077615738E0,-3.254318714E0,4.695628166E0
7.248225110E-1,-9.053673744E0,-3.225588322E0,4.657320976E0
7.273102710E-1,-9.001001358E0,-3.201646328E0,4.642955780E0
7.297980320E-1,-8.953117371E0,-3.192069530E0,4.599860191E0
7.322857920E-1,-8.886079788E0,-3.230376720E0,4.556764603E0
7.347735530E-1,-8.809465408E0,-3.273472309E0,4.504091740E0
7.372613130E-1,-8.766369820E0,-3.306991100E0,4.460996151E0
7.397490730E-1,-8.742427826E0,-3.345298290E0,4.446630955E0
7.422368340E-1,-8.718485832E0,-3.359663486E0,4.484938145E0
7.447245940E-1,-8.699332237E0,-3.354875088E0,4.537611008E0
7.472123550E-1,-8.656236649E0,-3.321356297E0,4.657320976E0
7.497001150E-1,-8.617929459E0,-3.287837505E0,4.757877350E0
7.521878750E-1,-8.565256119E0,-3.254318714E0,4.829703331E0
7.546756360E-1,-8.512583733E0,-3.235165119E0,4.915894508E0
7.571633960E-1,-8.450334549E0,-3.263895512E0,4.958990097E0
7.596511570E-1,-8.383296967E0,-3.287837505E0,5.016450882E0
7.621389170E-1,-8.311470985E0,-3.321356297E0,5.088277340E0
7.646266780E-1,-8.258798599E0,-3.345298290E0,5.155314922E0
7.671144380E-1,-8.230068207E0,-3.397970676E0,5.212775707E0
7.696021980E-1,-8.215703011E0,-3.431489468E0,5.303755283E0
7.720899590E-1,-8.244433403E0,-3.465008497E0,5.394734859E0
7.745777190E-1,-8.258798599E0,-3.441066504E0,5.433042049E0
7.770654800E-1,-8.287528992E0,-3.421912670E0,5.466560841E0
7.795532400E-1,-8.287528992E0,-3.407547474E0,5.452195644E0
7.820410000E-1,-8.287528992E0,-3.369240284E0,5.399523258E0
7.845287610E-1,-8.268375397E0,-3.335721493E0,5.342062473E0
7.870165210E-1,-8.239645004E0,-3.287837505E0,5.255871296E0
7.895042820E-1,-8.210914612E0,-3.263895512E0,5.121796131E0
7.919920420E-1,-8.206126213E0,-3.216011524E0,5.002085686E0
7.944798030E-1,-8.206126213E0,-3.177704096E0,4.868010521E0
7.969675630E-1,-8.196549416E0,-3.120243311E0,4.729146957E0
7.994553230E-1,-8.206126213E0,-3.081936121E0,4.609436989E0
8.019430840E-1,-8.196549416E0,-3.038840532E0,4.523245335E0
8.044308440E-1,-8.163030624E0,-3.010110140E0,4.398746967E0
8.069186050E-1,-8.163030624E0,-2.986168146E0,4.326920986E0
8.094063650E-1,-8.172607422E0,-2.943072557E0,4.259883404E0
8.118941250E-1,-8.201337814E0,-2.890399933E0,4.221576214E0
8.143818860E-1,-8.239645004E0,-2.828150749E0,4.183269024E0
8.168696460E-1,-8.239645004E0,-2.794631958E0,4.159327030E0
8.193574070E-1,-8.220491409E0,-2.770689964E0,4.121019840E0
8.218451670E-1,-8.196549416E0,-2.770689964E0,4.092289448E0
8.243329280E-1,-8.191761017E0,-2.789843559E0,4.039616585E0
8.268206880E-1,-8.196549416E0,-2.832939148E0,4.034828186E0
8.293084480E-1,-8.215703011E0,-2.832939148E0,4.049193859E0
8.317962090E-1,-8.234856606E0,-2.832939148E0,4.097077847E0
8.342839690E-1,-8.210914612E0,-2.818573952E0,4.178480625E0
8.367717300E-1,-8.186972618E0,-2.765901566E0,4.264671803E0
8.392594900E-1,-8.124723434E0,-2.746747971E0,4.298190594E0
8.417472500E-1,-8.095993042E0,-2.765901566E0,4.370016575E0
8.442350110E-1,-8.086416245E0,-2.746747971E0,4.408323765E0
8.467227710E-1,-8.100781441E0,-2.775478363E0,4.465784550E0
8.492105320E-1,-8.110358238E0,-2.785055161E0,4.528033733E0
8.516982920E-1,-8.119935036E0,-2.756324768E0,4.604648590E0
8.541860530E-1,-8.143877029E0,-2.727594376E0,4.676474571E0
8.566738130E-1,-8.124723434E0,-2.694075346E0,4.757877350E0
8.591615730E-1,-8.115146637E0,-2.617460966E0,4.844068527E0
8.616493340E-1,-8.033743858E0,-2.536058187E0,4.887164116E0
8.641370940E-1,-7.995436668E0,-2.469020605E0,4.901529312E0
8.666248550E-1,-7.952341080E0,-2.401982784E0,4.906317711E0
8.691126150E-1,-7.952341080E0,-2.382829189E0,4.868010521E0
