"Time (s)","Acceleration x (m/s^2)","Acceleration y (m/s^2)","Acceleration z (m/s^2)"
3.974390900E-2,-1.094988155E1,-2.818573952E0,1.224035621E0
4.221437800E-2,-1.085411358E1,-3.115454912E0,1.075595140E0
4.468620100E-2,-1.074398041E1,-3.426701069E0,9.558850527E-1
4.715995100E-2,-1.060990524E1,-3.699640274E0,8.888474107E-1
4.963370100E-2,-1.047104073E1,-3.943848848E0,8.601169586E-1
5.211042000E-2,-1.038963795E1,-4.121019840E0,8.409633636E-1
5.459042000E-2,-1.031781197E1,-4.255095005E0,8.457517624E-1
5.707390900E-2,-1.028429317E1,-4.350862980E0,8.313865662E-1
5.956088800E-2,-1.024598598E1,-4.408323765E0,8.696937561E-1
6.205125300E-2,-1.024119759E1,-4.432265759E0,8.936358094E-1
6.454479500E-2,-1.026513958E1,-4.456207752E0,9.558850527E-1
6.704114900E-2,-1.031781197E1,-4.460996151E0,1.022922635E0
6.953984700E-2,-1.039442635E1,-4.427477360E0,1.142632723E0
7.204036800E-2,-1.049977112E1,-4.370016575E0,1.267131209E0
7.454213800E-2,-1.062905884E1,-4.283825397E0,1.405994892E0
7.704453400E-2,-1.079186440E1,-4.168903828E0,1.540070295E0
7.954693000E-2,-1.094509315E1,-4.015674591E0,1.688510776E0
8.203557600E-2,-1.108395672E1,-3.862445831E0,1.846528053E0
8.452333600E-2,-1.121324348E1,-3.709217072E0,1.990180135E0
8.701104500E-2,-1.132337666E1,-3.527257681E0,2.090736628E0
8.949875300E-2,-1.143350983E1,-3.359663486E0,2.157774210E0
9.198646100E-2,-1.152449036E1,-3.206434727E0,2.243965626E0
9.447417000E-2,-1.160589314E1,-3.072359324E0,2.301426411E0
9.696187800E-2,-1.170644951E1,-2.909553528E0,2.411559582E0
9.944958600E-2,-1.179264069E1,-2.756324768E0,2.497750998E0
1.019372950E-1,-1.190277386E1,-2.598307371E0,2.583942175E0
1.044250030E-1,-1.202727222E1,-2.425924778E0,2.665344954E0
1.069127110E-1,-1.217571259E1,-2.248754025E0,2.722805977E0
1.094004200E-1,-1.235288334E1,-2.095525026E0,2.761113167E0
1.118881280E-1,-1.254442024E1,-1.932719350E0,2.722805977E0
1.143758360E-1,-1.271680260E1,-1.803432465E0,2.679710150E0
1.168635450E-1,-1.289397335E1,-1.707664371E0,2.598307371E0
1.193512530E-1,-1.303762531E1,-1.583165884E0,2.507327795E0
1.218389610E-1,-1.320043087E1,-1.487397790E0,2.425924778E0
1.243266700E-1,-1.336323643E1,-1.401206493E0,2.363675594E0
1.268143780E-1,-1.351167774E1,-1.343745708E0,2.306214809E0
1.293020860E-1,-1.365532970E1,-1.324592113E0,2.311003208E0
1.317897950E-1,-1.379419327E1,-1.377264500E0,2.282272816E0
1.342775030E-1,-1.391390324E1,-1.496974587E0,2.282272816E0
1.367652110E-1,-1.400967121E1,-1.674145579E0,2.282272816E0
1.392529200E-1,-1.403840160E1,-1.927930951E0,2.287061214E0
1.417406280E-1,-1.394742203E1,-2.181716204E0,2.301426411E0
1.442283360E-1,-1.378940487E1,-2.473809004E0,2.349310398E0
1.467160450E-1,-1.357392693E1,-2.746747971E0,2.397194386E0
1.492037530E-1,-1.332971764E1,-3.029263735E0,2.469020605E0
1.516914610E-1,-1.300889492E1,-3.306991100E0,2.588730574E0
1.541791700E-1,-1.265455341E1,-3.594295263E0,2.741959572E0
1.566668780E-1,-1.227626896E1,-3.828927040E0,2.866457939E0
1.591545860E-1,-1.189798546E1,-4.087501049E0,3.014898539E0
1.616422950E-1,-1.155800915E1,-4.331709385E0,3.129820108E0
1.641300030E-1,-1.125633907E1,-4.575918198E0,3.225588322E0
1.666177110E-1,-1.097861195E1,-4.777030945E0,3.316567898E0
1.691054720E-1,-1.075834560E1,-4.954201698E0,3.436278105E0
1.715932320E-1,-1.058596325E1,-5.040393353E0,3.570353270E0
1.740809930E-1,-1.049019432E1,-5.045181751E0,3.685275078E0
1.765687530E-1,-1.045667553E1,-4.997297287E0,3.781043053E0
1.790565130E-1,-1.047582912E1,-4.920682907E0,3.838503838E0
1.815442740E-1,-1.052850151E1,-4.820126534E0,3.848080635E0
1.840320340E-1,-1.060032845E1,-4.681262970E0,3.790619850E0
1.865197950E-1,-1.065300083E1,-4.513668537E0,3.709217072E0
1.890075550E-1,-1.069130802E1,-4.346074581E0,3.618237257E0
1.914953160E-1,-1.074876881E1,-4.173692226E0,3.517680883E0
1.939830760E-1,-1.083974838E1,-4.001309395E0,3.383605480E0
1.964708360E-1,-1.096424675E1,-3.785831451E0,3.263895512E0
1.989585970E-1,-1.113662910E1,-3.551199675E0,3.158550501E0
2.014463570E-1,-1.131858826E1,-3.306991100E0,3.053205729E0
2.039341180E-1,-1.151970100E1,-3.029263735E0,2.957437754E0
2.064218780E-1,-1.171123791E1,-2.765901566E0,2.866457939E0
2.089096380E-1,-1.191235065E1,-2.526481390E0,2.775478363E0
2.113973990E-1,-1.210388660E1,-2.334945202E0,2.674921751E0
2.138851590E-1,-1.230021095E1,-2.172139406E0,2.579153776E0
2.163729200E-1,-1.248695850E1,-2.042852640E0,2.449866772E0
2.188606800E-1,-1.263539982E1,-1.918354154E0,2.315791607E0
2.213484410E-1,-1.270243740E1,-1.765125155E0,2.196081400E0
2.238362010E-1,-1.273595619E1,-1.578377485E0,2.081159830E0
2.263239610E-1,-1.271201420E1,-1.477820992E0,1.990180135E0
2.288117220E-1,-1.265934181E1,-1.453878999E0,1.894412041E0
2.312994820E-1,-1.259709263E1,-1.492186189E0,1.822586060E0
2.337872430E-1,-1.249174690E1,-1.654991984E0,1.745971560E0
2.362750030E-1,-1.234809494E1,-1.846528053E0,1.674145579E0
2.387627630E-1,-1.215177059E1,-2.076371431E0,1.616684675E0
2.412505240E-1,-1.192671585E1,-2.287061214E0,1.564012289E0
2.437382840E-1,-1.169687271E1,-2.449866772E0,1.540070295E0
2.462260450E-1,-1.146224022E1,-2.550423384E0,1.530493379E0
2.487138050E-1,-1.118930149E1,-2.617460966E0,1.573589087E0
2.512015660E-1,-1.095466995E1,-2.674921751E0,1.678933978E0
2.536893260E-1,-1.076313400E1,-2.746747971E0,1.803432465E0
2.561770860E-1,-1.060511684E1,-2.823362350E0,1.942296147E0
2.586648470E-1,-1.048540592E1,-2.904765129E0,2.081159830E0
2.611526070E-1,-1.042315674E1,-2.981379747E0,2.234388828E0
2.636403680E-1,-1.037527275E1,-3.038840532E0,2.406771183E0
2.661281280E-1,-1.033696556E1,-3.105878115E0,2.545634985E0
2.686158880E-1,-1.031302357E1,-3.110666513E0,2.679710150E0
2.711036490E-1,-1.033696556E1,-3.086724520E0,2.780266762E0
2.735914090E-1,-1.042315674E1,-3.034052134E0,2.866457939E0
2.760791700E-1,-1.054286766E1,-2.952649355E0,2.923918724E0
2.785669300E-1,-1.069609642E1,-2.813785553E0,2.952649355E0
2.810546910E-1,-1.086847878E1,-2.674921751E0,2.957437754E0
2.835424510E-1,-1.102170753E1,-2.526481390E0,2.967014551E0
2.860302110E-1,-1.116057110E1,-2.382829189E0,2.957437754E0
2.885179720E-1,-1.129943466E1,-2.220023632E0,2.947860956E0
2.910057320E-1,-1.142393303E1,-2.033275843E0,2.938283920E0
2.934934930E-1,-1.156279755E1,-1.836951256E0,2.928707123E0
2.959812530E-1,-1.168250751E1,-1.640626669E0,2.943072557E0
2.984690130E-1,-1.180700588E1,-1.458667397E0,2.943072557E0
3.009567740E-1,-1.189319706E1,-1.310226917E0,2.890399933E0
3.034445340E-1,-1.190756226E1,-1.204882026E0,2.823362350E0
3.059322950E-1,-1.187883186E1,-1.109113932E0,2.698863983E0
3.084200550E-1,-1.181658268E1,-1.008557439E0,2.536058187E0
3.109078160E-1,-1.173517990E1,-8.840589523E-1,2.354098797E0
3.133955760E-1,-1.163941193E1,-7.739257216E-1,2.162562609E0
3.158833360E-1,-1.156279755E1,-6.877344251E-1,1.994968534E0
3.183710970E-1,-1.151012421E1,-6.015431881E-1,1.817797661E0
3.208588570E-1,-1.147181702E1,-5.392939448E-1,1.683722377E0
3.233466180E-1,-1.151012421E1,-4.770447016E-1,1.568800688E0
3.258343780E-1,-1.158673954E1,-4.052186310E-1,1.463455796E0
3.283221380E-1,-1.167293072E1,-3.381809890E-1,1.415571809E0
3.308098990E-1,-1.177827549E1,-2.759317458E-1,1.405994892E0
3.332976590E-1,-1.186925507E1,-2.424129248E-1,1.420360208E0
3.357854200E-1,-1.194586945E1,-2.232593149E-1,1.439513803E0
3.382731800E-1,-1.202248383E1,-2.136825025E-1,1.473032594E0
3.407609410E-1,-1.209430981E1,-2.328361124E-1,1.511339784E0
3.432487010E-1,-1.216134739E1,-2.615665495E-1,1.549647093E0
3.457364610E-1,-1.222838497E1,-3.094505668E-1,1.568800688E0
3.482242220E-1,-1.225711536E1,-3.477577865E-1,1.602319479E0
3.507119820E-1,-1.227148056E1,-3.956418335E-1,1.587954283E0
3.531997430E-1,-1.223796177E1,-4.195838571E-1,1.516128182E0
3.556875030E-1,-1.214219379E1,-4.243722558E-1,1.453878999E0
3.581752630E-1,-1.203206062E1,-4.483142793E-1,1.367687702E0
3.606630240E-1,-1.189798546E1,-4.961982965E-1,1.267131209E0
3.631507840E-1,-1.177827549E1,-5.728127360E-1,1.204882026E0
3.656385450E-1,-1.167771912E1,-6.590040326E-1,1.147421122E0
3.681263050E-1,-1.158195114E1,-7.499836683E-1,1.070806742E0
3.706140660E-1,-1.151491261E1,-8.265981078E-1,9.941922426E-1
3.731018260E-1,-1.147660542E1,-8.696937561E-1,9.223662019E-1
3.755895860E-1,-1.147181702E1,-8.601169586E-1,8.888474107E-1
3.780773470E-1,-1.151970100E1,-8.170213103E-1,9.175778031E-1
3.805651070E-1,-1.158673954E1,-7.116764784E-1,9.702502489E-1
3.830528680E-1,-1.165856552E1,-5.632359385E-1,9.989806414E-1
3.855406280E-1,-1.175912189E1,-3.812766075E-1,1.046864748E0
3.880283880E-1,-1.184052467E1,-2.088941038E-1,1.056441545E0
3.905161490E-1,-1.191713905E1,-1.179144308E-1,1.051653147E0
3.930039090E-1,-1.204163742E1,-2.693476900E-2,1.022922635E0
3.954916700E-1,-1.217092419E1,6.404489279E-2,1.032499433E0
3.979794300E-1,-1.229063416E1,1.358709484E-1,1.046864748E0
4.004671910E-1,-1.243428612E1,2.268506140E-1,1.051653147E0
4.029549510E-1,-1.254920864E1,3.034650683E-1,1.037287831E0
4.054427110E-1,-1.262582302E1,3.752911091E-1,1.022922635E0
4.079304720E-1,-1.266891861E1,4.183867574E-1,1.003769040E0
4.104182320E-1,-1.270243740E1,4.231751561E-1,9.989806414E-1
4.129059930E-1,-1.270722580E1,4.135983288E-1,1.013345838E0
4.153937530E-1,-1.269286060E1,3.465606868E-1,1.032499433E0
4.178815130E-1,-1.263539982E1,2.507926226E-1,1.032499433E0
4.203692740E-1,-1.252047825E1,1.215057373E-1,1.008557439E0
4.228570340E-1,-1.234330654E1,-4.129998013E-2,9.606734514E-1
4.253447950E-1,-1.207994461E1,-2.328361124E-1,9.175778031E-1
4.278325550E-1,-1.178306389E1,-4.435258508E-1,8.888474107E-1
4.303203160E-1,-1.144787502E1,-6.302735806E-1,8.888474107E-1
4.328080760E-1,-1.109832191E1,-8.313865662E-1,8.553285599E-1
4.352958360E-1,-1.075355721E1,-1.042076349E0,8.601169586E-1
4.377835970E-1,-1.041836834E1,-1.228824019E0,8.840589523E-1
4.402713570E-1,-1.013106441E1,-1.386841297E0,9.127894044E-1
4.427591180E-1,-9.891644478E0,-1.501762986E0,9.654618502E-1
4.452468780E-1,-9.695320129E0,-1.587954283E0,1.018134236E0
4.477346380E-1,-9.537302017E0,-1.650203466E0,1.046864748E0
4.502223990E-1,-9.412803650E0,-1.712452769E0,1.113902330E0
4.527101590E-1,-9.302670479E0,-1.793855667E0,1.185728431E0
4.551979200E-1,-9.206902504E0,-1.880046844E0,1.271919608E0
4.576856800E-1,-9.120711327E0,-1.956661344E0,1.386841297E0
4.601734410E-1,-9.053673744E0,-1.980603337E0,1.516128182E0
4.626612010E-1,-9.034520149E0,-1.966238141E0,1.678933978E0
4.651489610E-1,-9.034520149E0,-1.903988957E0,1.808220863E0
4.676367220E-1,-9.120711327E0,-1.793855667E0,1.942296147E0
4.701244820E-1,-9.245209694E0,-1.659780383E0,2.090736628E0
4.726122430E-1,-9.364919662E0,-1.492186189E0,2.205658197E0
4.751000030E-1,-9.489418030E0,-1.315015316E0,2.315791607E0
4.775877630E-1,-9.604340553E0,-1.123479128E0,2.435501575E0
4.800755240E-1,-9.704896927E0,-9.463081956E-1,2.531269789E0
4.825632840E-1,-9.767146111E0,-7.643488646E-1,2.612672567E0
4.850510450E-1,-9.791088104E0,-6.015431881E-1,2.674921751E0
4.875388050E-1,-9.795876503E0,-4.722562730E-1,2.708440781E0
4.900265660E-1,-9.771934509E0,-3.286041915E-1,2.727594376E0
4.925143260E-1,-9.690531731E0,-1.945288926E-1,2.689286947E0
4.950020860E-1,-9.609128952E0,-9.876082093E-2,2.646191359E0
4.974898470E-1,-9.532513618E0,1.616086066E-2,2.607884169E0
4.999776070E-1,-9.484629631E0,1.406593472E-1,2.560000181E0
5.024653680E-1,-9.436745644E0,2.268506140E-1,2.512116194E0
5.049531280E-1,-9.417592049E0,2.747346461E-1,2.502539396E0
5.074408880E-1,-9.388861656E0,3.226186931E-1,2.507327795E0
5.099286490E-1,-9.379284859E0,3.513490856E-1,2.488174200E0
5.124164090E-1,-9.384073257E0,3.752911091E-1,2.497750998E0
5.149041700E-1,-9.369708061E0,3.944447339E-1,2.516904593E0
5.173919300E-1,-9.336189270E0,4.040215313E-1,2.545634985E0
5.198796910E-1,-9.312247276E0,3.896563351E-1,2.583942175E0
5.223674510E-1,-9.288305283E0,3.321954906E-1,2.579153776E0
5.248552110E-1,-9.235632896E0,2.124854028E-1,2.588730574E0
5.273429720E-1,-9.187748909E0,5.925649032E-2,2.655768156E0
5.298307320E-1,-9.115922928E0,-1.083376259E-1,2.718017578E0
5.323184930E-1,-8.972270966E0,-2.902969420E-1,2.780266762E0
5.348062530E-1,-8.795100212E0,-4.722562730E-1,2.789843559E0
5.372940130E-1,-8.665813446E0,-6.302735806E-1,2.770689964E0
5.397817740E-1,-8.570044518E0,-7.595604658E-1,2.761113167E0
5.422695340E-1,-8.488641739E0,-9.032126069E-1,2.785055161E0
5.447572950E-1,-8.459911346E0,-1.042076349E0,2.852092743E0
5.472450550E-1,-8.503006935E0,-1.152209520E0,2.986168146E0
5.497327630E-1,-8.613141060E0,-1.291073322E0,3.105878115E0
5.522204720E-1,-8.823830605E0,-1.391629696E0,3.249530315E0
5.547081800E-1,-9.044096947E0,-1.458667397E0,3.421912670E0
5.571958880E-1,-9.259574890E0,-1.487397790E0,3.546411276E0
5.596835970E-1,-9.455899239E0,-1.482609391E0,3.632602453E0
5.621713050E-1,-9.637859344E0,-1.439513803E0,3.670909643E0
5.646590130E-1,-9.800664902E0,-1.396418095E0,3.680486679E0
5.671467220E-1,-9.949105263E0,-1.353322506E0,3.646967649E0
5.696344300E-1,-1.004008484E1,-1.338957310E0,3.551199675E0
5.721221380E-1,-1.011669922E1,-1.315015316E0,3.460220098E0
5.746098470E-1,-1.021246719E1,-1.243189216E0,3.302202702E0
5.770975550E-1,-1.030344677E1,-1.152209520E0,3.115454912E0
5.795852630E-1,-1.040400314E1,-1.032499433E0,2.880823135E0
5.820729720E-1,-1.047104073E1,-9.175778031E-1,2.636614561E0
5.845606800E-1,-1.049498272E1,-8.074445128E-1,2.339733601E0
5.870483880E-1,-1.051892471E1,-7.116764784E-1,2.057217836E0
5.895360970E-1,-1.049019432E1,-6.111199856E-1,1.789067268E0
5.920238050E-1,-1.042794514E1,-5.249287486E-1,1.535281897E0
5.945115130E-1,-1.036569595E1,-4.195838571E-1,1.315015316E0
5.969992220E-1,-1.027950478E1,-3.621230125E-1,1.099537134E0
5.994869300E-1,-1.022683239E1,-2.902969420E-1,9.223662019E-1
6.019746380E-1,-1.015979481E1,-2.424129248E-1,7.882909179E-1
6.044623470E-1,-1.005445004E1,-2.663549483E-1,6.542156339E-1
6.069500550E-1,-9.915586472E0,-2.950853705E-1,5.153518915E-1
6.094377630E-1,-9.791088104E0,-3.142389655E-1,3.573346138E-1
6.119254720E-1,-9.647436142E0,-3.429693878E-1,2.184709013E-1
6.144132320E-1,-9.484629631E0,-3.621230125E-1,1.131260321E-1
6.169009930E-1,-9.302670479E0,-3.812766075E-1,4.129998013E-2
6.193887530E-1,-9.135076523E0,-4.243722558E-1,1.735796221E-2
6.218765130E-1,-9.001001358E0,-4.866214991E-1,-1.795651275E-3
6.243642740E-1,-8.895656586E0,-5.871779919E-1,3.651157767E-2
6.268520340E-1,-8.790311813E0,-7.212532759E-1,5.566519126E-2
6.293397950E-1,-8.661025047E0,-9.223662019E-1,8.439560980E-2
6.318275550E-1,-8.531737328E0,-1.152209520E0,1.227028370E-1
6.343153160E-1,-8.383296967E0,-1.405994892E0,1.179144308E-1
6.368030760E-1,-8.263586998E0,-1.626261473E0,1.370680481E-1
6.392908360E-1,-8.182184219E0,-1.808220863E0,1.562216580E-1
6.417785970E-1,-8.163030624E0,-1.985391736E0,2.472013235E-1
6.442663570E-1,-8.230068207E0,-2.129043818E0,3.860650361E-1
6.467541180E-1,-8.402450562E0,-2.239177227E0,5.632359385E-1
6.492418780E-1,-8.646659851E0,-2.349310398E0,7.068880796E-1
6.517296380E-1,-9.024943352E0,-2.445078373E0,8.170213103E-1
6.542173990E-1,-9.350554466E0,-2.569576979E0,9.510966539E-1
6.567051590E-1,-9.609128952E0,-2.607884169E0,1.195305228E0
6.591929200E-1,-9.886856079E0,-2.641402960E0,1.267131209E0
6.616806800E-1,-1.012627602E1,-2.761113167E0,1.238400817E0
6.641684410E-1,-1.028908157E1,-2.856881142E0,1.089960337E0
6.666562010E-1,-1.040879154E1,-2.928707123E0,8.361749649E-1
6.691439610E-1,-1.045667553E1,-2.976591349E0,5.392939448E-1
6.716317220E-1,-1.046625233E1,-2.986168146E0,2.136825025E-1
6.741194820E-1,-1.042315674E1,-2.967014551E0,-1.262941360E-1
6.766072430E-1,-1.034175396E1,-2.928707123E0,-4.566939771E-1
6.790950030E-1,-1.017416000E1,-2.866457939E0,-7.487865686E-1
6.815827630E-1,-9.987412453E0,-2.761113167E0,-9.546879530E-1
6.840705240E-1,-9.762357712E0,-2.650979757E0,-1.131858826E0
6.865582840E-1,-9.513360023E0,-2.536058187E0,-1.289876223E0
6.890460450E-1,-9.302670479E0,-2.421136379E0,-1.438316703E0
6.915338050E-1,-9.125499725E0,-2.263119221E0,-1.548449993E0
6.940215660E-1,-8.948328972E0,-2.133832216E0,-1.620275974E0
6.965093260E-1,-8.756793022E0,-2.009333849E0,-1.692102075E0
6.989970860E-1,-8.574832916E0,-1.932719350E0,-1.730409265E0
7.014848470E-1,-8.445546150E0,-1.851316452E0,-1.706467271E0
7.039726070E-1,-8.321047783E0,-1.745971560E0,-1.658583283E0
7.064603680E-1,-8.163030624E0,-1.645415068E0,-1.586757183E0
7.089481280E-1,-7.981071472E0,-1.544858694E0,-1.514931083E0
7.114358880E-1,-7.746439457E0,-1.444302201E0,-1.467047095E0
7.139236490E-1,-7.487865925E0,-1.382052898E0,-1.385644197E0
7.164114090E-1,-7.248445511E0,-1.358110905E0,-1.342548609E0
7.188991700E-1,-7.032967567E0,-1.367687702E0,-1.246780515E0
7.213869300E-1,-6.860584736E0,-1.362899303E0,-1.098340034E0
7.238746910E-1,-6.726509571E0,-1.300650120E0,-8.684966564E-1
7.263624510E-1,-6.597222805E0,-1.204882026E0,-6.003460884E-1
7.288502110E-1,-6.439205647E0,-1.137844324E0,-2.986766696E-1
7.313379720E-1,-6.242880821E0,-1.089960337E0,-3.531447425E-2
7.338257320E-1,-6.008249283E0,-1.061229944E0,1.945288926E-1
7.363134930E-1,-5.768828869E0,-1.066018343E0,3.908534348E-1
7.388012530E-1,-5.519832134E0,-1.037287831E0,6.015431881E-1
7.412890130E-1,-5.251681328E0,-1.027711034E0,7.882909179E-1
7.437767740E-1,-4.950012207E0,-1.003769040E0,9.750386477E-1
7.462645340E-1,-4.586093426E0,-9.989806414E-1,1.118690729E0
7.487522950E-1,-4.193444252E0,-1.013345838E0,1.195305228E0
7.512400550E-1,-3.733757496E0,-1.056441545E0,1.286284804E0
7.537278160E-1,-3.235763550E0,-1.099537134E0,1.372476101E0
7.562155760E-1,-2.694674015E0,-1.147421122E0,1.444302201E0
7.587033360E-1,-2.134430885E0,-1.180940032E0,1.501762986E0
7.611911490E-1,-1.626860023E0,-1.185728431E0,1.554435492E0
7.636789610E-1,-1.171961784E0,-1.137844324E0,1.616684675E0
7.661667740E-1,-8.319851160E-1,-9.989806414E-1,1.683722377E0
7.686545860E-1,-6.069301367E-1,-7.882909179E-1,1.765125155E0
7.711423990E-1,-3.722983599E-1,-5.728127360E-1,1.808220863E0
7.736302110E-1,-1.185129806E-1,-3.764882088E-1,1.765125155E0
7.761180240E-1,1.640028208E-1,-2.088941038E-1,1.674145579E0
7.786058360E-1,4.321534038E-1,-5.087678507E-2,1.578377485E0
7.810936490E-1,7.050924301E-1,7.362170517E-2,1.434725404E0
7.835814610E-1,9.493009448E-1,1.837549806E-1,1.257554412E0
7.860692740E-1,1.136048675E0,2.986766696E-1,1.037287831E0
7.885570860E-1,1.279700756E0,4.710591733E-1,8.361749649E-1
7.910448990E-1,1.370680451E0,6.434416771E-1,6.542156339E-1
7.935327110E-1,1.375468850E0,8.589198589E-1,5.105634928E-1
7.960205240E-1,1.337161660E0,1.083974838E0,4.100070298E-1
7.985083360E-1,1.227028370E0,1.323395014E0,3.333925903E-1
8.009961490E-1,1.059434295E0,1.548449993E0,2.950853705E-1
8.034839610E-1,8.631097078E-1,1.778293371E0,2.998737693E-1
8.059717740E-1,6.284779310E-1,1.969829440E0,3.142389655E-1
8.084595860E-1,3.699041605E-1,2.132635117E0,3.381809890E-1
8.109473990E-1,9.696517140E-2,2.257133722E0,3.094505668E-1
8.134352110E-1,-1.807622313E-1,2.314594507E0,2.136825025E-1
8.159230240E-1,-4.537012279E-1,2.305017710E0,9.876082093E-2
8.184108360E-1,-6.739677787E-1,2.228403330E0,-4.967968538E-2
8.208986490E-1,-8.750807047E-1,2.103904724E0,-1.837549806E-1
8.233864610E-1,-1.028309584E0,1.955464244E0,-3.226186931E-1
8.258742220E-1,-1.148019671E0,1.792658567E0,-4.710591733E-1
8.283619820E-1,-1.258152962E0,1.586757183E0,-6.147112846E-1
8.308497430E-1,-1.411381960E0,1.366490602E0,-7.679402232E-1
8.333375030E-1,-1.655590534E0,1.160589218E0,-8.876502514E-1
8.358252630E-1,-1.942894697E0,9.929951429E-1,-1.007360339E0
8.383130240E-1,-2.254140854E0,7.775170207E-1,-1.165377736E0
8.408007840E-1,-2.565387011E0,4.902127981E-1,-1.352125406E0
8.432885450E-1,-2.857479811E0,1.167173311E-1,-1.572391987E0
8.457763050E-1,-3.125630379E0,-2.902969420E-1,-1.783081770E0
8.482640660E-1,-3.374627352E0,-7.308300734E-1,-2.003348351E0
8.507518260E-1,-3.575740337E0,-1.176151633E0,-2.209249735E0
8.532395860E-1,-3.719392300E0,-1.621473074E0,-2.410362482E0
8.557273470E-1,-3.824737310E0,-2.009333849E0,-2.601898670E0
8.582151070E-1,-3.920505285E0,-2.368463993E0,-2.764704466E0
8.607028680E-1,-3.987542868E0,-2.660556555E0,-2.879626036E0
8.631906280E-1,-4.035427094E0,-2.943072557E0,-2.970605850E0
8.656783880E-1,-4.097676277E0,-3.206434727E0,-3.047220230E0
8.681661490E-1,-4.159925461E0,-3.455431700E0,-3.075950623E0
