"Time (s)","Acceleration x (m/s^2)","Acceleration y (m/s^2)","Acceleration z (m/s^2)"
4.999865700E-2,1.129225254E1,6.274604321E0,-2.147000313E0
5.247568800E-2,1.129704094E1,6.303334713E0,-2.142211914E0
5.495402200E-2,1.132098293E1,6.332065105E0,-2.099116325E0
5.743397000E-2,1.136886692E1,6.356007099E0,-2.056020737E0
5.991579300E-2,1.138323212E1,6.399102688E0,-1.998559833E0
6.239964700E-2,1.140717411E1,6.403891087E0,-1.945887446E0
6.488563600E-2,1.145505810E1,6.442198277E0,-1.902791858E0
6.737376100E-2,1.150294209E1,6.423044682E0,-1.883638144E0
6.986391800E-2,1.155082607E1,6.375160694E0,-1.883638144E0
7.235589700E-2,1.160349846E1,6.351218700E0,-1.912368655E0
7.484787600E-2,1.164180565E1,6.327276707E0,-1.921945453E0
7.734131300E-2,1.168968964E1,6.308123112E0,-1.926733851E0
7.983589700E-2,1.172799683E1,6.308123112E0,-1.941099048E0
8.233131300E-2,1.177109241E1,6.317699909E0,-1.912368655E0
8.482725100E-2,1.182376480E1,6.327276707E0,-1.874061346E0
8.732334500E-2,1.186207199E1,6.341641903E0,-1.811812162E0
8.981553200E-2,1.191474438E1,6.351218700E0,-1.735197663E0
9.230334500E-2,1.195305157E1,6.303334713E0,-1.677736878E0
9.479115700E-2,1.196741676E1,6.226719856E0,-1.620275974E0
9.727897000E-2,1.197220516E1,6.116586685E0,-1.562815189E0
9.976678200E-2,1.196262836E1,5.977723122E0,-1.500565886E0
1.022545950E-1,1.194347477E1,5.867589951E0,-1.443105102E0
1.047424070E-1,1.191953278E1,5.771821976E0,-1.347337008E0
1.072302200E-1,1.191953278E1,5.714360714E0,-1.241992116E0
1.097180320E-1,1.192910957E1,5.685630322E0,-1.112705231E0
1.122058450E-1,1.190995598E1,5.676053524E0,-9.834183455E-1
1.146936570E-1,1.184770679E1,5.671265125E0,-8.972271085E-1
1.171814700E-1,1.175193882E1,5.666476727E0,-8.110358119E-1
1.196692820E-1,1.162744045E1,5.690418720E0,-7.439981699E-1
1.221570950E-1,1.148378849E1,5.699995518E0,-7.152677774E-1
1.246449070E-1,1.134492493E1,5.671265125E0,-7.392097712E-1
1.271327200E-1,1.122042656E1,5.632957935E0,-7.870938182E-1
1.296205320E-1,1.113423538E1,5.623381138E0,-8.254010081E-1
1.321083450E-1,1.106240940E1,5.632957935E0,-8.493430614E-1
1.345961570E-1,1.099058247E1,5.609015942E0,-8.972271085E-1
1.370839700E-1,1.095227528E1,5.599439144E0,-9.403226972E-1
1.395717820E-1,1.090439129E1,5.594650745E0,-9.690531492E-1
1.420595950E-1,1.086608410E1,5.623381138E0,-9.738415480E-1
1.445474070E-1,1.081341171E1,5.676053524E0,-1.012148738E0
1.470352200E-1,1.077989292E1,5.699995518E0,-1.031302333E0
1.495230320E-1,1.076073933E1,5.699995518E0,-1.050456047E0
1.520108450E-1,1.072243214E1,5.699995518E0,-1.083974838E0
1.544986570E-1,1.069370174E1,5.719149113E0,-1.093551636E0
1.569864700E-1,1.066018295E1,5.728725910E0,-1.107916832E0
1.594742820E-1,1.060751057E1,5.767033577E0,-1.093551636E0
1.619620950E-1,1.055483818E1,5.776610374E0,-1.045667648E0
1.644499070E-1,1.050216579E1,5.843647957E0,-1.002571940E0
1.669377200E-1,1.047822380E1,5.877166748E0,-9.307458997E-1
1.694255320E-1,1.044949341E1,5.925050735E0,-8.349778652E-1
1.719133450E-1,1.043512821E1,5.934627533E0,-7.775170207E-1
1.744011570E-1,1.042076302E1,5.934627533E0,-7.487865686E-1
1.768889700E-1,1.039682102E1,5.934627533E0,-7.392097712E-1
1.793767820E-1,1.037766743E1,5.934627533E0,-7.392097712E-1
1.818645950E-1,1.032499504E1,5.944204330E0,-7.200561762E-1
1.843524070E-1,1.025316906E1,5.953781128E0,-6.913257241E-1
1.868402200E-1,1.021007347E1,6.001665115E0,-6.530185342E-1
1.893280320E-1,1.017176628E1,6.039972305E0,-5.764040351E-1
1.918158450E-1,1.015261269E1,6.078279495E0,-5.093663931E-1
1.943036570E-1,1.009515190E1,6.111798286E0,-4.423287511E-1
1.967914700E-1,9.980229378E0,6.116586685E0,-3.848679364E-1
1.992792820E-1,9.798270226E0,6.135740280E0,-3.130418658E-1
2.017670950E-1,9.554061890E0,6.130951881E0,-2.555810213E-1
2.042549070E-1,9.266757965E0,6.183624268E0,-2.076970041E-1
2.067427200E-1,8.979453087E0,6.288969517E0,-2.029085904E-1
2.092305320E-1,8.749609947E0,6.432621479E0,-2.076970041E-1
2.117183450E-1,8.514978409E0,6.561908245E0,-2.316390127E-1
2.142061570E-1,8.299500465E0,6.648099422E0,-2.843114436E-1
2.166939700E-1,8.146271706E0,6.700771809E0,-3.369838893E-1
2.191817820E-1,8.060079575E0,6.676829815E0,-3.896563351E-1
2.216695950E-1,7.983465672E0,6.595427036E0,-4.950011969E-1
2.241574070E-1,7.940370083E0,6.475717068E0,-6.099228859E-1
2.266452200E-1,7.959523678E0,6.356007099E0,-7.344213724E-1
2.291330320E-1,7.997830868E0,6.245873451E0,-8.397662640E-1
2.316208450E-1,8.002618790E0,6.150105476E0,-9.498994946E-1
2.341086570E-1,8.016983986E0,6.063914299E0,-1.045667648E0
2.365964700E-1,8.031349182E0,5.963357925E0,-1.174954534E0
2.390842820E-1,8.026560783E0,5.848436356E0,-1.280299306E0
2.415720950E-1,8.050502777E0,5.757456303E0,-1.356913805E0
2.440599070E-1,8.074444771E0,5.632957935E0,-1.414374709E0
2.465477200E-1,8.117541313E0,5.474940777E0,-1.467047095E0
2.490355320E-1,8.175002098E0,5.364807606E0,-1.538873196E0
2.515233450E-1,8.232462883E0,5.264250755E0,-1.586757183E0
2.540111570E-1,8.280346870E0,5.197213173E0,-1.629852772E0
2.564989700E-1,8.333019257E0,5.130175591E0,-1.658583283E0
2.589867820E-1,8.356961250E0,5.067926407E0,-1.692102075E0
2.614745950E-1,8.371326447E0,5.029619217E0,-1.682525277E0
2.639624070E-1,8.385691643E0,4.986523628E0,-1.658583283E0
2.664502200E-1,8.400056839E0,4.957793236E0,-1.634641171E0
2.689380320E-1,8.385691643E0,4.909909248E0,-1.591545582E0
2.714258450E-1,8.342596054E0,4.842871666E0,-1.567603588E0
2.739136570E-1,8.299500465E0,4.766256809E0,-1.558026791E0
2.764014700E-1,8.251616478E0,4.689642429E0,-1.514931083E0
2.788892820E-1,8.194155693E0,4.603451252E0,-1.471835494E0
2.813770950E-1,8.136694908E0,4.517260075E0,-1.457470298E0
2.838649070E-1,8.079233170E0,4.445434093E0,-1.438316703E0
2.863527200E-1,7.988254070E0,4.402338505E0,-1.414374709E0
2.888405320E-1,7.839813232E0,4.383184910E0,-1.404797792E0
2.913283450E-1,7.624335289E0,4.411915302E0,-1.380855799E0
2.938161570E-1,7.423222542E0,4.440645695E0,-1.342548609E0
2.963039700E-1,7.217320919E0,4.478952885E0,-1.304241419E0
2.987917820E-1,7.040150166E0,4.498106480E0,-1.265934110E0
3.012795950E-1,6.901286602E0,4.464587688E0,-1.237203717E0
3.037674070E-1,6.791152954E0,4.397550106E0,-1.232415318E0
3.062552200E-1,6.704961777E0,4.292205334E0,-1.261145711E0
3.087430320E-1,6.661866188E0,4.167706490E0,-1.299453020E0
3.112308450E-1,6.657077789E0,4.086303711E0,-1.328183413E0
3.137186570E-1,6.628347397E0,4.047996521E0,-1.356913805E0
3.162064700E-1,6.613982201E0,4.019266129E0,-1.376067400E0
3.186942820E-1,6.628347397E0,4.004900932E0,-1.361702204E0
3.211820950E-1,6.671442986E0,3.971382141E0,-1.337760210E0
3.236699070E-1,6.748057365E0,3.904344320E0,-1.313818216E0
3.261577200E-1,6.886921406E0,3.775057554E0,-1.309029818E0
3.286455320E-1,7.044938564E0,3.636193752E0,-1.265934110E0
3.311333450E-1,7.236474514E0,3.487753391E0,-1.270722508E0
3.336211570E-1,7.418434143E0,3.358466387E0,-1.294664621E0
3.361089700E-1,7.605181694E0,3.233968019E0,-1.342548609E0
3.385967820E-1,7.744045258E0,3.138199806E0,-1.433528304E0
3.410845950E-1,7.858967304E0,3.037643433E0,-1.505354285E0
3.435724070E-1,7.969100475E0,2.937086821E0,-1.553238392E0
3.460602200E-1,8.060079575E0,2.836530447E0,-1.586757183E0
3.485480320E-1,8.127118111E0,2.740762472E0,-1.581968784E0
3.510358450E-1,8.146271706E0,2.678513050E0,-1.572391987E0
3.535236570E-1,8.175002098E0,2.640205860E0,-1.558026791E0
3.560114700E-1,8.218097687E0,2.611475468E0,-1.553238392E0
3.584992820E-1,8.232462883E0,2.644994259E0,-1.581968784E0
3.609870950E-1,8.213309288E0,2.673724651E0,-1.644217968E0
3.634749070E-1,8.131906509E0,2.702455282E0,-1.711255670E0
3.659627200E-1,8.031349182E0,2.740762472E0,-1.797446966E0
3.684505320E-1,7.902062893E0,2.807800055E0,-1.850119352E0
3.709383450E-1,7.763198853E0,2.908356428E0,-1.898003340E0
3.734261570E-1,7.629123688E0,2.999336243E0,-1.955464244E0
3.759139700E-1,7.466318130E0,3.104681015E0,-2.017713547E0
3.784017820E-1,7.255628109E0,3.219602823E0,-2.060809135E0
3.808895950E-1,7.068880558E0,3.334524393E0,-2.065597534E0
3.833774070E-1,6.886921406E0,3.420715570E0,-2.056020737E0
3.858652200E-1,6.752845764E0,3.502118587E0,-2.051232338E0
3.883530320E-1,6.633135796E0,3.597886562E0,-2.036867142E0
3.908408450E-1,6.532579422E0,3.703231573E0,-2.008136749E0
3.933286570E-1,6.446388245E0,3.808576345E0,-2.003348351E0
3.958164700E-1,6.408081055E0,3.904344320E0,-1.979406238E0
3.983042820E-1,6.379350662E0,3.942651749E0,-1.945887446E0
4.007920950E-1,6.350619793E0,3.952228546E0,-1.912368655E0
4.032799070E-1,6.364984989E0,3.928286552E0,-1.874061346E0
4.057677200E-1,6.417657852E0,3.846883535E0,-1.811812162E0
4.082555320E-1,6.527791023E0,3.746327162E0,-1.720832467E0
4.107433450E-1,6.728903770E0,3.636193752E0,-1.629852772E0
4.132311570E-1,6.949170589E0,3.506906986E0,-1.562815189E0
4.157189700E-1,7.174225330E0,3.425503969E0,-1.510142684E0
4.182067820E-1,7.389703751E0,3.363254786E0,-1.490989089E0
4.206945950E-1,7.552509308E0,3.324947596E0,-1.486200690E0
4.231824070E-1,7.681796074E0,3.315370798E0,-1.500565886E0
4.256702200E-1,7.782352448E0,3.291428804E0,-1.505354285E0
4.281580320E-1,7.858967304E0,3.277063608E0,-1.519719481E0
4.306458450E-1,7.897274494E0,3.262698412E0,-1.510142684E0
4.331336570E-1,7.887697697E0,3.267486811E0,-1.495777488E0
4.356214700E-1,7.887697697E0,3.272275209E0,-1.452681899E0
4.381092820E-1,7.897274494E0,3.257910013E0,-1.409586191E0
4.405970950E-1,7.945158482E0,3.243544817E0,-1.395220995E0
4.430849070E-1,7.993042469E0,3.248333216E0,-1.390432596E0
4.455727200E-1,8.079233170E0,3.281852007E0,-1.404797792E0
4.480605320E-1,8.131906509E0,3.315370798E0,-1.423951507E0
4.505483450E-1,8.151060104E0,3.324947596E0,-1.462258697E0
4.530361570E-1,8.146271706E0,3.358466387E0,-1.529296279E0
4.555239700E-1,8.160636902E0,3.377619982E0,-1.548449993E0
4.580117820E-1,8.155848503E0,3.382408381E0,-1.596333981E0
4.604995950E-1,8.107964516E0,3.430292368E0,-1.649006367E0
4.629874070E-1,8.050502777E0,3.454234600E0,-1.711255670E0
4.654752200E-1,7.916428089E0,3.521272182E0,-1.754351258E0
4.679630320E-1,7.710526466E0,3.631405354E0,-1.783081770E0
4.704508450E-1,7.428010941E0,3.775057554E0,-1.773504853E0
4.729386570E-1,7.164648533E0,3.980958939E0,-1.759139657E0
4.754264700E-1,6.949170589E0,4.186860085E0,-1.759139657E0
4.779142820E-1,6.781576157E0,4.354454517E0,-1.754351258E0
4.804020950E-1,6.719326973E0,4.488529682E0,-1.763928056E0
4.828899070E-1,6.719326973E0,4.555567265E0,-1.773504853E0
4.853777200E-1,6.757634163E0,4.565144062E0,-1.787870169E0
4.878655320E-1,6.839036942E0,4.531625271E0,-1.783081770E0
4.903533450E-1,6.963535786E0,4.488529682E0,-1.749562860E0
4.928411570E-1,7.116764545E0,4.435857296E0,-1.735197663E0
4.953289700E-1,7.308300495E0,4.373608112E0,-1.711255670E0
4.978167820E-1,7.495048523E0,4.320935726E0,-1.711255670E0
5.003045950E-1,7.633912086E0,4.253897667E0,-1.749562860E0
5.027925110E-1,7.763198853E0,4.191648483E0,-1.744774461E0
5.052804280E-1,7.873332500E0,4.105457306E0,-1.768716455E0
5.077683450E-1,7.959523678E0,4.038419724E0,-1.759139657E0
5.102562610E-1,8.016983986E0,3.971382141E0,-1.754351258E0
5.127441780E-1,8.055291176E0,3.933074951E0,-1.749562860E0
5.152320950E-1,8.079233170E0,3.918709517E0,-1.749562860E0
5.177200110E-1,8.131906509E0,3.913921118E0,-1.730409265E0
5.202079280E-1,8.160636902E0,3.952228546E0,-1.749562860E0
5.226958450E-1,8.175002098E0,3.976170540E0,-1.816600561E0
5.251837610E-1,8.208520889E0,4.000112534E0,-1.907580256E0
5.276716780E-1,8.242039680E0,4.019266129E0,-1.998559833E0
5.301595950E-1,8.270770073E0,4.019266129E0,-2.103904724E0
5.326474590E-1,8.299500465E0,3.995324135E0,-2.214038134E0
5.351353240E-1,8.323442459E0,3.990535736E0,-2.281075716E0
5.376231360E-1,8.313865662E0,4.004900932E0,-2.328959703E0
5.401109490E-1,8.270770073E0,4.024054527E0,-2.367266893E0
5.425987610E-1,8.261193275E0,4.028842926E0,-2.405574083E0
5.450865740E-1,8.246828079E0,4.033631325E0,-2.424727678E0
5.475743860E-1,8.170213699E0,4.033631325E0,-2.424727678E0
5.500621990E-1,8.016983986E0,4.091092110E0,-2.434304476E0
5.525500110E-1,7.782352448E0,4.206013680E0,-2.381632090E0
5.550378240E-1,7.595604897E0,4.344877720E0,-2.343324900E0
5.575256360E-1,7.423222542E0,4.474164486E0,-2.271498919E0
5.600134490E-1,7.341819286E0,4.560355663E0,-2.209249735E0
5.625012610E-1,7.327454090E0,4.608239651E0,-2.079962730E0
5.649890740E-1,7.375338554E0,4.603451252E0,-1.969829440E0
5.674768860E-1,7.461529732E0,4.550778866E0,-1.893214941E0
5.699646990E-1,7.557297707E0,4.483741283E0,-1.787870169E0
5.724525110E-1,7.677007675E0,4.411915302E0,-1.668160081E0
5.749403240E-1,7.815871239E0,4.301782131E0,-1.591545582E0
5.774281360E-1,7.921216488E0,4.196436882E0,-1.538873196E0
5.799159490E-1,8.031349182E0,4.105457306E0,-1.452681899E0
5.824037610E-1,8.103176117E0,4.024054527E0,-1.380855799E0
5.848915740E-1,8.155848503E0,3.957016945E0,-1.289876223E0
5.873793860E-1,8.189367294E0,3.880402327E0,-1.213261724E0
5.898671990E-1,8.242039680E0,3.827729940E0,-1.151012421E0
5.923550110E-1,8.280346870E0,3.770269156E0,-1.117493629E0
5.948428240E-1,8.294712067E0,3.712808371E0,-1.093551636E0
5.973306360E-1,8.318654060E0,3.684077978E0,-1.107916832E0
5.998184490E-1,8.275558472E0,3.684077978E0,-1.141435623E0
6.023062610E-1,8.232462883E0,3.655347347E0,-1.184531331E0
6.047940740E-1,8.184578896E0,3.636193752E0,-1.237203717E0
6.072818860E-1,8.170213699E0,3.588309765E0,-1.309029818E0
6.097696990E-1,8.170213699E0,3.511695385E0,-1.390432596E0
6.122575110E-1,8.189367294E0,3.459022999E0,-1.467047095E0
6.147453240E-1,8.232462883E0,3.368043184E0,-1.543661594E0
6.172331360E-1,8.299500465E0,3.286640406E0,-1.653794765E0
6.197209490E-1,8.371326447E0,3.229179621E0,-1.759139657E0
6.222087610E-1,8.423998833E0,3.181295395E0,-1.845330954E0
6.246965740E-1,8.471882820E0,3.138199806E0,-1.907580256E0
6.271843860E-1,8.495824814E0,3.109469414E0,-1.965041041E0
6.296721990E-1,8.491036415E0,3.104681015E0,-1.998559833E0
6.321600110E-1,8.486248016E0,3.104681015E0,-2.022501945E0
6.346478240E-1,8.462306023E0,3.119046211E0,-2.051232338E0
6.371356360E-1,8.395268440E0,3.157353401E0,-2.060809135E0
6.396234490E-1,8.318654060E0,3.171718597E0,-2.036867142E0
6.421112610E-1,8.246828079E0,3.190872431E0,-2.008136749E0
6.445990740E-1,8.093599319E0,3.214814425E0,-1.955464244E0
6.470868860E-1,7.921216488E0,3.286640406E0,-1.898003340E0
6.495746990E-1,7.734468460E0,3.377619982E0,-1.826177359E0
6.520625110E-1,7.590816498E0,3.487753391E0,-1.744774461E0
6.545503240E-1,7.485471725E0,3.588309765E0,-1.668160081E0
6.570381360E-1,7.399280548E0,3.655347347E0,-1.653794765E0
6.595259490E-1,7.346607685E0,3.698443174E0,-1.629852772E0
6.620137610E-1,7.351396084E0,3.736750364E0,-1.620275974E0
6.645015740E-1,7.423222542E0,3.746327162E0,-1.625064373E0
6.669893860E-1,7.490260124E0,3.703231573E0,-1.644217968E0
6.694771990E-1,7.586028099E0,3.655347347E0,-1.668160081E0
6.719650110E-1,7.710526466E0,3.588309765E0,-1.701678872E0
6.744528240E-1,7.782352448E0,3.482964993E0,-1.725620866E0
6.769406360E-1,7.868544102E0,3.396773577E0,-1.739986062E0
6.794284490E-1,7.964312077E0,3.334524393E0,-1.749562860E0
6.819162610E-1,8.045714378E0,3.267486811E0,-1.754351258E0
6.844040740E-1,8.131906509E0,3.229179621E0,-1.763928056E0
6.868918860E-1,8.237251282E0,3.233968019E0,-1.802235365E0
6.893796990E-1,8.313865662E0,3.219602823E0,-1.878849745E0
6.918675110E-1,8.390480042E0,3.210026026E0,-1.993771434E0
6.943553240E-1,8.452729225E0,3.181295395E0,-2.108693123E0
6.968431360E-1,8.524555206E0,3.166930199E0,-2.237980127E0
6.993309490E-1,8.615534782E0,3.171718597E0,-2.343324900E0
7.018187610E-1,8.687360764E0,3.186083794E0,-2.448669672E0
7.043065740E-1,8.740033150E0,3.181295395E0,-2.491765499E0
7.067943860E-1,8.763975143E0,3.166930199E0,-2.554014683E0
7.092821990E-1,8.797493935E0,3.200449228E0,-2.654571056E0
7.117700110E-1,8.811859131E0,3.229179621E0,-2.759916067E0
7.142578240E-1,8.807070732E0,3.272275209E0,-2.841318846E0
7.167456360E-1,8.735244751E0,3.329735994E0,-2.932298422E0
7.192334490E-1,8.658630371E0,3.382408381E0,-2.989759445E0
7.217212610E-1,8.582015991E0,3.439869404E0,-3.047220230E0
7.242090740E-1,8.558073997E0,3.497330189E0,-3.071162224E0
7.266968860E-1,8.534132004E0,3.540425777E0,-3.071162224E0
7.291846990E-1,8.505401611E0,3.588309765E0,-3.047220230E0
7.316725110E-1,8.423998833E0,3.631405354E0,-2.994547844E0
7.341603240E-1,8.309077263E0,3.688866377E0,-2.908356428E0
7.366481360E-1,8.141483307E0,3.798999548E0,-2.836530447E0
7.391359490E-1,7.988254070E0,3.928286552E0,-2.764704466E0
7.416237610E-1,7.887697697E0,4.067150116E0,-2.678513050E0
7.441115740E-1,7.815871239E0,4.143764496E0,-2.616263866E0
7.465993860E-1,7.782352448E0,4.148552895E0,-2.510919094E0
7.490871990E-1,7.782352448E0,4.105457306E0,-2.415150881E0
7.515750110E-1,7.796717644E0,4.052784920E0,-2.290652514E0
7.540628240E-1,7.839813232E0,3.952228546E0,-2.194884300E0
7.565506360E-1,7.897274494E0,3.870825529E0,-2.079962730E0
7.590384490E-1,7.983465672E0,3.770269156E0,-1.974617839E0
7.615262610E-1,8.093599319E0,3.669712543E0,-1.893214941E0
7.640140740E-1,8.242039680E0,3.564367771E0,-1.797446966E0
7.665018860E-1,8.356961250E0,3.487753391E0,-1.739986062E0
7.689896990E-1,8.428787231E0,3.420715570E0,-1.701678872E0
7.714775110E-1,8.452729225E0,3.358466387E0,-1.682525277E0
7.739653240E-1,8.414422035E0,3.296217203E0,-1.711255670E0
7.764531360E-1,8.337807655E0,3.224391222E0,-1.739986062E0
7.789409490E-1,8.270770073E0,3.133411407E0,-1.797446966E0
7.814287610E-1,8.194155693E0,3.052008629E0,-1.787870169E0
7.839165740E-1,8.170213699E0,2.989759445E0,-1.783081770E0
7.864043860E-1,8.184578896E0,2.961029053E0,-1.739986062E0
7.888921990E-1,8.222886086E0,2.932298422E0,-1.701678872E0
7.913800110E-1,8.285135269E0,2.903568029E0,-1.653794765E0
7.938678240E-1,8.356961250E0,2.889202833E0,-1.615487576E0
7.963556360E-1,8.452729225E0,2.817376852E0,-1.572391987E0
7.988434490E-1,8.491036415E0,2.740762472E0,-1.534084797E0
8.013312610E-1,8.558073997E0,2.640205860E0,-1.490989089E0
8.038190740E-1,8.629899979E0,2.563591480E0,-1.481412292E0
8.063068860E-1,8.711302757E0,2.496553898E0,-1.471835494E0
8.087946990E-1,8.792705536E0,2.453458309E0,-1.462258697E0
8.112825110E-1,8.898050308E0,2.467823505E0,-1.471835494E0
8.137703240E-1,9.008183479E0,2.467823505E0,-1.471835494E0
8.162581360E-1,9.051279068E0,2.491765499E0,-1.505354285E0
8.187459490E-1,9.075222015E0,2.515707493E0,-1.553238392E0
8.212337610E-1,9.036913872E0,2.525284290E0,-1.610699177E0
8.237215740E-1,8.965087891E0,2.539649487E0,-1.663371682E0
8.262093860E-1,8.854954720E0,2.549226284E0,-1.730409265E0
8.286971990E-1,8.749609947E0,2.563591480E0,-1.792658567E0
8.311850110E-1,8.653841972E0,2.549226284E0,-1.859696150E0
8.336728240E-1,8.572439194E0,2.544437885E0,-1.926733851E0
8.361606360E-1,8.553285599E0,2.506130695E0,-2.017713547E0
8.386484490E-1,8.548497200E0,2.467823505E0,-2.099116325E0
8.411362610E-1,8.577227592E0,2.391208887E0,-2.180519104E0
8.436240740E-1,8.605957985E0,2.319382906E0,-2.237980127E0
8.461118860E-1,8.610746384E0,2.242768526E0,-2.314594507E0
8.485996990E-1,8.620323181E0,2.132635117E0,-2.386420488E0
8.510875110E-1,8.644265175E0,1.998559833E0,-2.463035107E0
8.535753240E-1,8.696937561E0,1.874061346E0,-2.501342297E0
8.560631360E-1,8.720879555E0,1.739986062E0,-2.525284290E0
8.585509490E-1,8.696937561E0,1.639429569E0,-2.496553898E0
8.610387610E-1,8.677783966E0,1.558026791E0,-2.472611904E0
8.635265740E-1,8.668207169E0,1.486200690E0,-2.458246708E0
8.660143860E-1,8.634688377E0,1.414374709E0,-2.472611904E0
8.685021990E-1,8.610746384E0,1.361702204E0,-2.467823505E0
8.709900110E-1,8.586804390E0,1.313818216E0,-2.506130695E0
8.734778240E-1,8.567650795E0,1.270722508E0,-2.525284290E0
8.759656360E-1,8.543708801E0,1.241992116E0,-2.544437885E0
8.784534490E-1,8.538920403E0,1.232415318E0,-2.539649487E0
8.809412610E-1,8.510190010E0,1.227626920E0,-2.510919094E0
8.834290740E-1,8.486248016E0,1.198896527E0,-2.434304476E0
8.859168860E-1,8.500613213E0,1.170166135E0,-2.328959703E0
8.884046990E-1,8.548497200E0,1.170166135E0,-2.223614931E0
8.908925110E-1,8.644265175E0,1.174954534E0,-2.108693123E0
8.933803240E-1,8.763975143E0,1.213261724E0,-1.988983035E0
8.958681360E-1,8.869319916E0,1.237203717E0,-1.845330954E0
8.983559490E-1,8.945934296E0,1.299453020E0,-1.749562860E0
