"Time (s)","Acceleration x (m/s^2)","Acceleration y (m/s^2)","Acceleration z (m/s^2)"
2.548500700E-2,-1.177348709E1,-1.985391736E0,2.109890223E0
2.797641400E-2,-1.177827549E1,-1.951872945E0,2.167351007E0
3.046818400E-2,-1.175433350E1,-1.918354154E0,2.243965626E0
3.296042400E-2,-1.173996830E1,-1.884835243E0,2.320580006E0
3.545328900E-2,-1.172560310E1,-1.865681648E0,2.373252392E0
3.794683000E-2,-1.173517990E1,-1.856104851E0,2.445078373E0
4.044459100E-2,-1.172560310E1,-1.836951256E0,2.531269789E0
4.294235100E-2,-1.173996830E1,-1.841739655E0,2.598307371E0
4.539235100E-2,-1.174475670E1,-1.860893250E0,2.761113167E0
4.784235100E-2,-1.173517990E1,-1.899200439E0,2.832939148E0
5.034620500E-2,-1.172081470E1,-1.966238141E0,2.876034737E0
5.285005900E-2,-1.165856552E1,-2.023699045E0,2.904765129E0
5.540005900E-2,-1.158673954E1,-2.090736628E0,2.933495522E0
5.795005900E-2,-1.151491261E1,-2.143409014E0,2.957437754E0
6.050005900E-2,-1.142393303E1,-2.220023632E0,2.967014551E0
6.305005900E-2,-1.131858826E1,-2.277484417E0,2.923918724E0
6.560005900E-2,-1.119887829E1,-2.349310398E0,2.866457939E0
6.815005900E-2,-1.109832191E1,-2.406771183E0,2.852092743E0
7.070005900E-2,-1.100255394E1,-2.473809004E0,2.808997154E0
7.325005900E-2,-1.092593956E1,-2.526481390E0,2.761113167E0
7.580005900E-2,-1.083495998E1,-2.574365377E0,2.756324768E0
7.835005900E-2,-1.074876881E1,-2.631826162E0,2.689286947E0
8.090005900E-2,-1.067694283E1,-2.679710150E0,2.636614561E0
8.345005900E-2,-1.061469364E1,-2.703652382E0,2.598307371E0
8.600005900E-2,-1.060511684E1,-2.713229179E0,2.540846586E0
8.855005900E-2,-1.061469364E1,-2.694075346E0,2.478597403E0
9.110005900E-2,-1.061948204E1,-2.650979757E0,2.425924778E0
9.365005900E-2,-1.063863564E1,-2.622249365E0,2.354098797E0
9.620005900E-2,-1.067694283E1,-2.603095770E0,2.287061214E0
9.875005900E-2,-1.068173122E1,-2.574365377E0,2.181716204E0
1.013000590E-1,-1.070567322E1,-2.574365377E0,2.085948229E0
1.038500590E-1,-1.070567322E1,-2.593518972E0,2.004545450E0
1.064000590E-1,-1.070567322E1,-2.569576979E0,1.951872945E0
1.089500590E-1,-1.069130802E1,-2.574365377E0,1.913565755E0
1.115000590E-1,-1.065300083E1,-2.574365377E0,1.899200439E0
1.140500590E-1,-1.064342403E1,-2.564788580E0,1.903988957E0
1.166000590E-1,-1.065300083E1,-2.536058187E0,1.923142552E0
1.191500590E-1,-1.063863564E1,-2.507327795E0,1.961449742E0
1.217000590E-1,-1.064342403E1,-2.469020605E0,1.994968534E0
1.242500590E-1,-1.064342403E1,-2.449866772E0,2.033275843E0
1.268000590E-1,-1.063384724E1,-2.430713177E0,2.057217836E0
1.293500590E-1,-1.062427044E1,-2.406771183E0,2.066794634E0
1.319000590E-1,-1.061469364E1,-2.378040791E0,2.105101824E0
1.344500590E-1,-1.060511684E1,-2.373252392E0,2.129043818E0
1.370000590E-1,-1.059554005E1,-2.378040791E0,2.148197412E0
1.395500590E-1,-1.060990524E1,-2.358887196E0,2.148197412E0
1.421000590E-1,-1.060990524E1,-2.315791607E0,2.224812031E0
1.446500590E-1,-1.063384724E1,-2.277484417E0,2.253542423E0
1.472000590E-1,-1.066736603E1,-2.243965626E0,2.272696018E0
1.497500590E-1,-1.067215443E1,-2.200869799E0,2.296638012E0
1.523000590E-1,-1.068651962E1,-2.176927805E0,2.320580006E0
1.548500590E-1,-1.069609642E1,-2.148197412E0,2.315791607E0
1.574000590E-1,-1.067215443E1,-2.133832216E0,2.282272816E0
1.599448510E-1,-1.065300083E1,-2.124255419E0,2.229600430E0
1.624325590E-1,-1.063863564E1,-2.114678621E0,2.186504602E0
1.649202160E-1,-1.062427044E1,-2.114678621E0,2.148197412E0
1.674078720E-1,-1.059075165E1,-2.119467020E0,2.114678621E0
1.698955280E-1,-1.057638645E1,-2.105101824E0,2.100313425E0
1.723831840E-1,-1.056202126E1,-2.085948229E0,2.100313425E0
1.748708410E-1,-1.058596325E1,-2.066794634E0,2.124255419E0
1.773584970E-1,-1.060032845E1,-2.057217836E0,2.176927805E0
1.798461530E-1,-1.060990524E1,-2.042852640E0,2.191293001E0
1.823338090E-1,-1.058596325E1,-2.038064241E0,2.210446835E0
1.848214660E-1,-1.052850151E1,-2.047641039E0,2.272696018E0
1.873091220E-1,-1.044709873E1,-2.076371431E0,2.301426411E0
1.897967780E-1,-1.038006115E1,-2.090736628E0,2.330156803E0
1.922844340E-1,-1.029386997E1,-2.129043818E0,2.368463993E0
1.947720910E-1,-1.020289040E1,-2.191293001E0,2.382829189E0
1.972597470E-1,-1.011669922E1,-2.229600430E0,2.406771183E0
1.997474030E-1,-1.001614285E1,-2.277484417E0,2.459443808E0
2.022350590E-1,-9.915586472E0,-2.311003208E0,2.492962599E0
2.047227160E-1,-9.838972092E0,-2.344521999E0,2.526481390E0
2.072103720E-1,-9.762357712E0,-2.354098797E0,2.545634985E0
2.096980280E-1,-9.714473724E0,-2.387617588E0,2.564788580E0
2.121856840E-1,-9.642647743E0,-2.397194386E0,2.545634985E0
2.146733410E-1,-9.551667213E0,-2.416347980E0,2.492962599E0
2.171609970E-1,-9.465476036E0,-2.449866772E0,2.464232206E0
2.196486530E-1,-9.393650055E0,-2.464232206E0,2.449866772E0
2.221363090E-1,-9.345766068E0,-2.464232206E0,2.435501575E0
2.246239660E-1,-9.331400871E0,-2.454655409E0,2.421136379E0
2.271116220E-1,-9.302670479E0,-2.440289974E0,2.425924778E0
2.295992780E-1,-9.288305283E0,-2.430713177E0,2.421136379E0
2.320869340E-1,-9.259574890E0,-2.406771183E0,2.406771183E0
2.345745910E-1,-9.230844498E0,-2.392405987E0,2.368463993E0
2.370622470E-1,-9.192537308E0,-2.373252392E0,2.320580006E0
2.395499030E-1,-9.192537308E0,-2.339733601E0,2.272696018E0
2.420375590E-1,-9.168595314E0,-2.330156803E0,2.215235233E0
2.445252160E-1,-9.149441719E0,-2.296638012E0,2.162562609E0
2.470128720E-1,-9.125499725E0,-2.272696018E0,2.100313425E0
2.495005280E-1,-9.096769333E0,-2.253542423E0,2.028487444E0
2.519882370E-1,-9.063250542E0,-2.239177227E0,1.927930951E0
2.544759450E-1,-9.024943352E0,-2.239177227E0,1.836951256E0
2.569636530E-1,-8.972270966E0,-2.253542423E0,1.755548358E0
2.594513620E-1,-8.938752174E0,-2.267907619E0,1.678933978E0
2.619390700E-1,-8.895656586E0,-2.277484417E0,1.616684675E0
2.644267780E-1,-8.857349396E0,-2.301426411E0,1.568800688E0
2.669144870E-1,-8.823830605E0,-2.306214809E0,1.506551385E0
2.694021950E-1,-8.780735016E0,-2.325368404E0,1.449090600E0
2.718899030E-1,-8.723274231E0,-2.320580006E0,1.410783410E0
2.743776120E-1,-8.637083054E0,-2.306214809E0,1.377264500E0
2.768653200E-1,-8.565256119E0,-2.306214809E0,1.348534107E0
2.793530280E-1,-8.488641739E0,-2.291849613E0,1.324592113E0
2.818407370E-1,-8.402450562E0,-2.301426411E0,1.338957310E0
2.843284450E-1,-8.349778175E0,-2.287061214E0,1.338957310E0
2.868161530E-1,-8.316259384E0,-2.287061214E0,1.343745708E0
2.893038620E-1,-8.273163795E0,-2.248754025E0,1.358110905E0
2.917915700E-1,-8.277952194E0,-2.229600430E0,1.372476101E0
2.942792780E-1,-8.282740593E0,-2.210446835E0,1.382052898E0
2.967669870E-1,-8.297105789E0,-2.200869799E0,1.405994892E0
2.992546950E-1,-8.287528992E0,-2.167351007E0,1.434725404E0
3.017424030E-1,-8.301894188E0,-2.133832216E0,1.458667397E0
3.042301120E-1,-8.277952194E0,-2.081159830E0,1.511339784E0
3.067178200E-1,-8.244433403E0,-2.047641039E0,1.525704980E0
3.092055280E-1,-8.215703011E0,-2.009333849E0,1.525704980E0
3.116932370E-1,-8.182184219E0,-1.990180135E0,1.535281897E0
3.141809450E-1,-8.153453827E0,-1.971026540E0,1.544858694E0
3.166686530E-1,-8.148665428E0,-1.927930951E0,1.530493379E0
3.191563620E-1,-8.191761017E0,-1.927930951E0,1.535281897E0
3.216440700E-1,-8.206126213E0,-1.918354154E0,1.525704980E0
3.241317780E-1,-8.186972618E0,-1.913565755E0,1.516128182E0
3.266194870E-1,-8.201337814E0,-1.870470047E0,1.506551385E0
3.291071950E-1,-8.177395821E0,-1.832162857E0,1.492186189E0
3.315949030E-1,-8.129511833E0,-1.765125155E0,1.482609391E0
3.340826120E-1,-8.076839447E0,-1.712452769E0,1.516128182E0
3.365703200E-1,-8.043320656E0,-1.635838270E0,1.487397790E0
3.390580280E-1,-8.052897453E0,-1.597531080E0,1.449090600E0
3.415457370E-1,-8.052897453E0,-1.573589087E0,1.429937005E0
3.440334450E-1,-8.057685852E0,-1.559223890E0,1.391629696E0
3.465211530E-1,-8.076839447E0,-1.535281897E0,1.391629696E0
3.490088620E-1,-8.100781441E0,-1.520916581E0,1.377264500E0
3.514965700E-1,-8.129511833E0,-1.511339784E0,1.382052898E0
3.539842780E-1,-8.129511833E0,-1.487397790E0,1.396418095E0
3.564719870E-1,-8.081627846E0,-1.458667397E0,1.391629696E0
3.589596950E-1,-7.990648270E0,-1.453878999E0,1.382052898E0
3.614474030E-1,-7.875726700E0,-1.482609391E0,1.362899303E0
3.639351120E-1,-7.775169849E0,-1.506551385E0,1.295861721E0
3.664228200E-1,-7.674613476E0,-1.559223890E0,1.252766013E0
3.689105280E-1,-7.574057102E0,-1.645415068E0,1.171363235E0
3.713982370E-1,-7.487865925E0,-1.765125155E0,1.080383539E0
3.738859450E-1,-7.411251545E0,-1.889623642E0,9.846154451E-1
3.763736530E-1,-7.315483093E0,-2.014122248E0,8.888474107E-1
3.788613620E-1,-7.219715118E0,-2.129043818E0,8.074445128E-1
3.813490700E-1,-7.119158745E0,-2.239177227E0,7.308300734E-1
3.838367780E-1,-7.013813972E0,-2.320580006E0,6.063315868E-1
3.863244870E-1,-6.941987991E0,-2.349310398E0,5.345055461E-1
3.888121950E-1,-6.913257599E0,-2.358887196E0,4.531026781E-1
3.912999030E-1,-6.865373611E0,-2.373252392E0,3.764882088E-1
3.937876120E-1,-6.836642742E0,-2.358887196E0,3.238157928E-1
3.962753200E-1,-6.793547153E0,-2.373252392E0,2.902969420E-1
3.987630280E-1,-6.760028362E0,-2.382829189E0,2.472013235E-1
4.012507370E-1,-6.726509571E0,-2.392405987E0,1.945288926E-1
4.037384450E-1,-6.712144375E0,-2.387617588E0,1.418564469E-1
4.062261530E-1,-6.692990780E0,-2.397194386E0,8.918401599E-2
4.087138620E-1,-6.678625584E0,-2.392405987E0,6.045359373E-2
4.112015700E-1,-6.673837185E0,-2.401982784E0,-1.616086066E-2
4.136892780E-1,-6.673837185E0,-2.401982784E0,-4.489128292E-2
4.161769870E-1,-6.683413982E0,-2.358887196E0,-5.446808785E-2
4.186646950E-1,-6.726509571E0,-2.315791607E0,-8.319851011E-2
4.211524030E-1,-6.788758755E0,-2.287061214E0,-9.277531505E-2
4.236401120E-1,-6.807912350E0,-2.263119221E0,-9.277531505E-2
4.261278200E-1,-6.803123951E0,-2.210446835E0,-7.841010392E-2
4.286155280E-1,-6.803123951E0,-2.172139406E0,-5.925649032E-2
4.311032370E-1,-6.831854343E0,-2.119467020E0,-9.277531505E-2
4.335909450E-1,-6.860584736E0,-2.095525026E0,-1.023521200E-1
4.360786530E-1,-6.922834396E0,-2.085948229E0,-1.262941360E-1
4.385663620E-1,-6.961141586E0,-2.057217836E0,-1.262941360E-1
4.410540700E-1,-6.970718384E0,-2.033275843E0,-1.167173311E-1
4.435417780E-1,-6.980295181E0,-1.980603337E0,-7.841010392E-2
4.460294870E-1,-6.980295181E0,-1.899200439E0,-7.841010392E-2
4.485171950E-1,-6.989871979E0,-1.822586060E0,-3.052607179E-2
4.510049030E-1,-7.004237175E0,-1.760336757E0,2.214636654E-2
4.534926120E-1,-7.004237175E0,-1.702875972E0,5.566519126E-2
4.559803200E-1,-7.013813972E0,-1.635838270E0,1.322796494E-1
4.584680280E-1,-7.042544365E0,-1.583165884E0,1.849520802E-1
4.609556840E-1,-7.109581947E0,-1.511339784E0,2.376245260E-1
4.634433410E-1,-7.171831131E0,-1.453878999E0,2.759317458E-1
4.659309970E-1,-7.243657112E0,-1.420360208E0,3.142389655E-1
4.684186530E-1,-7.320271492E0,-1.405994892E0,3.142389655E-1
4.709063090E-1,-7.349001884E0,-1.405994892E0,2.998737693E-1
4.733939660E-1,-7.344213486E0,-1.429937005E0,2.184709013E-1
4.758816220E-1,-7.305906296E0,-1.525704980E0,1.322796494E-1
4.783692780E-1,-7.243657112E0,-1.631049871E0,6.524199992E-2
4.808569340E-1,-7.152677536E0,-1.745971560E0,-6.584054790E-3
4.833445910E-1,-6.999448776E0,-1.889623642E0,-5.446808785E-2
4.858322470E-1,-6.822277546E0,-2.042852640E0,-1.502361596E-1
4.883199030E-1,-6.578069210E0,-2.220023632E0,-2.460042238E-1
4.908075590E-1,-6.338648796E0,-2.387617588E0,-3.178302646E-1
4.932952160E-1,-6.089652061E0,-2.579153776E0,-3.561375141E-1
4.957828720E-1,-5.888539314E0,-2.741959572E0,-4.088099301E-1
4.982705280E-1,-5.720944881E0,-2.914341927E0,-3.992331326E-1
5.007581840E-1,-5.591658115E0,-3.062782526E0,-3.513490856E-1
5.032458410E-1,-5.515043736E0,-3.153762102E0,-2.364274114E-1
5.057334970E-1,-5.481524944E0,-3.220799923E0,-8.798690885E-2
5.082211530E-1,-5.524620533E0,-3.249530315E0,7.960720360E-2
5.107088090E-1,-5.639542103E0,-3.235165119E0,2.472013235E-1
5.131964660E-1,-5.835866451E0,-3.182492495E0,3.956418335E-1
5.156841220E-1,-6.051344872E0,-3.067570925E0,5.488707423E-1
5.181717780E-1,-6.295553207E0,-2.957437754E0,6.829460263E-1
5.206594340E-1,-6.506243229E0,-2.818573952E0,7.499836683E-1
5.231470910E-1,-6.697779179E0,-2.679710150E0,7.787141204E-1
5.256347470E-1,-6.874950409E0,-2.555211782E0,7.643488646E-1
5.281224030E-1,-7.037755966E0,-2.464232206E0,7.068880796E-1
5.306100590E-1,-7.195773125E0,-2.373252392E0,6.398503780E-1
5.330977160E-1,-7.358579159E0,-2.277484417E0,5.728127360E-1
5.355853720E-1,-7.521384716E0,-2.148197412E0,4.961982965E-1
5.380730280E-1,-7.708132267E0,-2.018910646E0,4.004302323E-1
5.405606840E-1,-7.890091896E0,-1.870470047E0,3.286041915E-1
5.430483410E-1,-8.081627846E0,-1.707664371E0,2.711433470E-1
5.455360490E-1,-8.292317390E0,-1.520916581E0,2.184709013E-1
5.480237570E-1,-8.479064941E0,-1.334168911E0,1.610100716E-1
5.505114660E-1,-8.637083054E0,-1.147421122E0,1.035492271E-1
5.529991740E-1,-8.756793022E0,-9.798270464E-1,2.693476900E-2
5.554868820E-1,-8.866926193E0,-8.265981078E-1,-7.362170517E-2
5.579745910E-1,-8.967482567E0,-7.164648771E-1,-1.454477459E-1
5.604622990E-1,-9.005789757E0,-6.398503780E-1,-2.172738016E-1
5.629500070E-1,-9.044096947E0,-6.015431881E-1,-2.747346461E-1
5.654377160E-1,-9.039308548E0,-5.823895931E-1,-3.034650683E-1
5.679254240E-1,-9.005789757E0,-5.871779919E-1,-2.986766696E-1
5.704131320E-1,-8.929175377E0,-6.063315868E-1,-2.890998423E-1
5.729008410E-1,-8.814253807E0,-6.494272351E-1,-2.555810213E-1
5.753885490E-1,-8.680178642E0,-7.739257216E-1,-1.837549806E-1
5.778762570E-1,-8.488641739E0,-9.367313981E-1,-1.023521200E-1
5.803639660E-1,-8.292317390E0,-1.147421122E0,7.781155407E-3
5.828516740E-1,-8.081627846E0,-1.396418095E0,1.562216580E-1
5.853393820E-1,-7.861361504E0,-1.640626669E0,4.052186310E-1
5.878270910E-1,-7.669825077E0,-1.865681648E0,7.116764784E-1
5.903147990E-1,-7.478289127E0,-2.095525026E0,1.032499433E0
5.928025070E-1,-7.315483093E0,-2.320580006E0,1.358110905E0
5.952902160E-1,-7.219715118E0,-2.526481390E0,1.635838270E0
5.977779240E-1,-7.133523941E0,-2.698863983E0,1.875258446E0
6.002656320E-1,-7.066486359E0,-2.847304344E0,2.095525026E0
6.027533410E-1,-7.018602371E0,-2.981379747E0,2.287061214E0
6.052410490E-1,-7.023390770E0,-3.086724520E0,2.449866772E0
6.077287570E-1,-7.071274757E0,-3.139396906E0,2.593518972E0
6.102164660E-1,-7.195773125E0,-3.129820108E0,2.713229179E0
6.127041740E-1,-7.358579159E0,-3.053205729E0,2.837727547E0
6.151918820E-1,-7.574057102E0,-2.957437754E0,2.895188332E0
6.176795910E-1,-7.870938301E0,-2.823362350E0,2.933495522E0
6.201672990E-1,-8.163030624E0,-2.689286947E0,2.880823135E0
6.226550070E-1,-8.474276543E0,-2.531269789E0,2.780266762E0
6.251427160E-1,-8.747216225E0,-2.349310398E0,2.598307371E0
6.276304240E-1,-8.967482567E0,-2.143409014E0,2.349310398E0
6.301181320E-1,-9.159018517E0,-1.913565755E0,2.042852640E0
6.326058410E-1,-9.317035675E0,-1.650203466E0,1.712452769E0
6.350935490E-1,-9.508571625E0,-1.372476101E0,1.377264500E0
6.375812570E-1,-9.676166534E0,-1.109113932E0,1.032499433E0
6.400689660E-1,-9.867702484E0,-8.744821548E-1,7.691373229E-1
6.425566740E-1,-1.008318043E1,-6.398503780E-1,5.823895931E-1
6.450443820E-1,-1.030344677E1,-4.291606545E-1,4.578910768E-1
6.475320910E-1,-1.049498272E1,-1.849520802E-1,3.621230125E-1
6.500197990E-1,-1.064342403E1,7.362170517E-2,2.663549483E-1
6.525075070E-1,-1.072003841E1,3.274070919E-1,1.610100716E-1
6.549952160E-1,-1.071046162E1,5.524620414E-1,1.735796221E-2
6.574829240E-1,-1.063384724E1,7.583633661E-1,-1.502361596E-1
6.599706320E-1,-1.050934792E1,8.924387097E-1,-3.130418658E-1
6.624583410E-1,-1.034175396E1,9.259575009E-1,-4.662707746E-1
6.649460490E-1,-1.013106441E1,8.732850552E-1,-5.285200477E-1
6.674337570E-1,-9.910798073E0,7.248445749E-1,-4.662707746E-1
6.699214660E-1,-9.700108528E0,5.237316489E-1,-3.369838893E-1
6.724091740E-1,-9.475052834E0,2.890998423E-1,-1.358709484E-1
6.748968820E-1,-9.202114105E0,2.573766746E-2,1.274912357E-1
6.773845910E-1,-8.943540573E0,-2.328361124E-1,4.483142793E-1
6.798722990E-1,-8.694543839E0,-5.201402903E-1,7.787141204E-1
6.823600070E-1,-8.426392555E0,-7.882909179E-1,1.123479128E0
6.848477160E-1,-8.167819023E0,-1.022922635E0,1.473032594E0
6.873354240E-1,-7.914033890E0,-1.262342811E0,1.817797661E0
6.898231320E-1,-7.660248280E0,-1.473032594E0,2.143409014E0
6.923108410E-1,-7.425616741E0,-1.678933978E0,2.459443808E0
6.947985490E-1,-7.229291916E0,-1.836951256E0,2.770689964E0
6.972862570E-1,-7.052121162E0,-1.980603337E0,3.053205729E0
6.997739660E-1,-6.918045998E0,-2.105101824E0,3.302202702E0
7.022616740E-1,-6.827065945E0,-2.181716204E0,3.551199675E0
7.047493820E-1,-6.764816761E0,-2.258330822E0,3.781043053E0
7.072370910E-1,-6.712144375E0,-2.296638012E0,3.939060450E0
7.097247990E-1,-6.678625584E0,-2.306214809E0,4.063559055E0
7.122125070E-1,-6.659471989E0,-2.272696018E0,4.140173435E0
7.147002160E-1,-6.664260387E0,-2.248754025E0,4.168903828E0
7.171879240E-1,-6.688202381E0,-2.186504602E0,4.144961834E0
7.196756320E-1,-6.740874767E0,-2.081159830E0,4.068347454E0
7.221633410E-1,-6.812700748E0,-1.947084546E0,3.939060450E0
7.246510490E-1,-6.851007938E0,-1.798644066E0,3.747524261E0
7.271387570E-1,-6.918045998E0,-1.597531080E0,3.532046080E0
7.296264660E-1,-6.980295181E0,-1.401206493E0,3.263895512E0
7.321141740E-1,-7.042544365E0,-1.180940032E0,2.995744944E0
7.346018820E-1,-7.152677536E0,-9.654618502E-1,2.727594376E0
7.370895910E-1,-7.238868713E0,-7.451952696E-1,2.502539396E0
7.395772990E-1,-7.325059891E0,-5.297171474E-1,2.243965626E0
7.420650070E-1,-7.420828342E0,-2.950853705E-1,1.985391736E0
7.445527160E-1,-7.516596317E0,-4.608838260E-2,1.741183162E0
7.470404240E-1,-7.617152691E0,2.076970041E-1,1.492186189E0
7.495281320E-1,-7.727285862E0,4.135983288E-1,1.214458823E0
7.520158410E-1,-7.851784706E0,5.907692909E-1,9.558850527E-1
7.545035490E-1,-7.981071472E0,7.631517649E-1,7.020996213E-1
7.569912570E-1,-8.115146637E0,9.020155072E-1,4.578910768E-1
7.594789660E-1,-8.210914612E0,1.002571940E0,2.136825025E-1
7.619666740E-1,-8.321047783E0,1.064821243E0,-6.584054790E-3
7.644543820E-1,-8.383296967E0,1.083974838E0,-1.646013707E-1
7.669420390E-1,-8.426392555E0,1.074398041E0,-3.082534671E-1
7.694296950E-1,-8.440757751E0,1.036090732E0,-4.423287511E-1
7.719173510E-1,-8.416815758E0,9.786299467E-1,-5.428852439E-1
7.744050070E-1,-8.378508568E0,9.259575009E-1,-6.338648796E-1
7.768926640E-1,-8.292317390E0,8.589198589E-1,-7.056909800E-1
7.793803200E-1,-8.210914612E0,7.870938182E-1,-7.487865686E-1
7.818679760E-1,-8.110358238E0,7.344213724E-1,-7.918822169E-1
7.843556320E-1,-8.048109055E0,6.625953317E-1,-8.301894665E-1
7.868432890E-1,-7.981071472E0,6.051344872E-1,-8.828618526E-1
7.893309450E-1,-7.961917877E0,5.811924338E-1,-8.924387097E-1
7.918186010E-1,-7.966706276E0,5.668272376E-1,-8.924387097E-1
7.943062570E-1,-7.995436668E0,5.668272376E-1,-8.684966564E-1
7.967939140E-1,-8.081627846E0,6.194996834E-1,-8.206126094E-1
7.992815700E-1,-8.172607422E0,6.817489266E-1,-7.918822169E-1
8.017692260E-1,-8.306682587E0,7.439981699E-1,-7.583633661E-1
8.042568820E-1,-8.459911346E0,8.158242106E-1,-7.344213724E-1
8.067445390E-1,-8.593987465E0,9.259575009E-1,-7.535749674E-1
8.092321950E-1,-8.713697433E0,1.040879130E0,-7.918822169E-1
8.117198510E-1,-8.833407402E0,1.179742932E0,-8.972271085E-1
8.142075070E-1,-8.943540573E0,1.328183413E0,-1.021725535E0
8.166951640E-1,-9.087192535E0,1.462258697E0,-1.122282028E0
8.191828200E-1,-9.221267700E0,1.581968784E0,-1.218050122E0
8.216704760E-1,-9.388861656E0,1.701678872E0,-1.323395014E0
8.241581320E-1,-9.566033363E0,1.802235365E0,-1.419163108E0
8.266457890E-1,-9.733627319E0,1.874061346E0,-1.529296279E0
8.291334450E-1,-9.891644478E0,1.941099048E0,-1.644217968E0
8.316211010E-1,-1.001614285E1,1.998559833E0,-1.802235365E0
8.341087570E-1,-1.014064121E1,2.051232338E0,-1.960252643E0
8.365964140E-1,-1.023640919E1,2.094327927E0,-2.108693123E0
8.390840700E-1,-1.033696556E1,2.142211914E0,-2.247556925E0
8.415717260E-1,-1.043273354E1,2.233191729E0,-2.324171305E0
8.440593820E-1,-1.059075165E1,2.300229311E0,-2.486977100E0
8.465470390E-1,-1.079186440E1,2.352901697E0,-2.989759445E0
8.490347470E-1,-1.090199757E1,2.391208887E0,-3.411138773E0
8.515224550E-1,-1.096424675E1,2.443881273E0,-4.024054527E0
8.540101640E-1,-1.103607273E1,2.458246708E0,-4.359242916E0
